ECG,EMG,HR,RESP,footGSR,handGSR,stress,NNRR,AVNN,SDNN,RMSSD,pNN50,TP,ULF,VLF,LF,HF,LF_HF
0.611275,-0.0104,372,-7.876275,1.4682,5.0127,,0.975,0.778846,0.0772125,0.0372767,0.0263158,0.0800051,0.0800051,0,0,0,
0.064796296,1.176407407,354,31.1142963,12.21787037,2.583925926,1,0.981481,0.52817,0.0380676,0.0178891,0.0192308,0.0259419,0.0259419,0,0,0,
0.07818,1.19528,297.4,39.3786,10.93192,2.47582,0.96,0.98,0.587531,0.0195737,0.0092376,0.0208333,0.00642574,0.00642574,0,0,0,
0.41005,-0.0064,274.4,-7.633225,1.2153,3.953075,0.125,0.975,0.781359,0.0371402,0.0286402,0.0526316,0.0154511,0.0154511,0,0,0,
0.110953488,0.82472093,251.2,43.61572093,7.486627907,18.09290698,0.11627907,0.976744,0.723595,0.0415276,0.0142461,0.0487805,0.0178054,0.0178054,0,0,0,
0.06609434,1.127641509,249,36.15339623,11.25190566,1.97190566,0.905660377,0.981132,0.559654,0.0524022,0.0300607,0.0588235,0.0349306,0.0349306,0,0,0,
0.4729,-0.0088,221.6,-10.892725,1.51815,4.9286,0.675,0.975,0.785359,0.0545288,0.0261176,0.0263158,0.0406497,0.0406497,0,0,0,
0.03098,0.82694,212,44.77096,12.6297,25.81496,1,0.98,0.587531,0.0195737,0.0092376,0.0208333,0.00641889,0.00641889,0,0,0,
0.018315789,0.439078947,198.3157895,42.32326316,6.0585,7.643789474,0.868421053,0.973684,0.876919,0.0668906,0.0321667,0.0277778,0.0628299,0.0628299,0,0,0,
0.423707317,-0.0036,195,-9.913682927,2.059146341,6.839536585,1,0.97561,0.765875,0.0482526,0.0212826,0.025641,0.0314636,0.0314636,0,0,0,
0.05536,0.77696,188.8,35.5484,10.68964,24.38788,0.66,0.98,0.594163,0.0394532,0.0186195,0.0208333,0.026,0.026,0,0,0,
0.424452381,-0.003,186,-11.52978571,2.055595238,7.515857143,1,0.97619,0.730171,0.0321356,0.015337,0.025,0.014628,0.014628,0,0,0,
0.136390244,0.825439024,185.4,43.28653659,7.271878049,17.04595122,0.12195122,0.97561,0.749875,0.0646419,0.0309047,0.025641,0.0591457,0.0591457,0,0,0,
0.0667,1.1146,182,37.0894,11.25312,2.56452,1,0.98,0.587531,0.0195737,0.0092376,0.0208333,0.00641082,0.00641082,0,0,0,
0.007611111,1.7545,180.2,31.90659259,10.97198148,2.567574074,0.944444444,0.981481,0.52817,0.0380676,0.0178891,0.0192308,0.0257412,0.0257412,0,0,0,
0.090462963,1.06587037,177.2,31.87866667,12.52862963,2.126777778,1,0.981481,0.534302,0.057249,0.026903,0.0192308,0.0588993,0.0588993,0,0,0,
0.040342105,0.450763158,176.6052632,42.685,5.663236842,7.074421053,0.789473684,0.973684,0.876919,0.0668906,0.0321667,0.0277778,0.0637271,0.0637271,0,0,0,
-0.011425532,-0.006148936,171.2765957,11.84476596,3.990574468,25.27819149,1,0.978723,0.645,2.24E-08,0,0,,0,,,,
0.013368421,0.269763158,170.6315789,42.86326316,6.871078947,7.264289474,0.868421053,0.973684,0.876919,0.0668906,0.0321667,0.0277778,inf,inf,0,0,0,
0.408853659,-0.0012,169.4,-10.60858537,2.19404878,8.522487805,1,0.97561,0.766,0.0214357,0.0102482,0.025641,0.00632966,0.00632966,0,0,0,
0.06432,-0.00794,168.84,11.36584,3.69256,22.3258,1,0.98,0.581,7.84E-09,0,0,,0,,,,
0.471666667,-0.0042,168.2,-7.402222222,1.24375,4.124805556,0.138888889,0.972222,0.912429,0.111731,0.0562547,0.0294118,0.153778,0.153778,0,0,0,
0.425736842,-0.0044,165,-7.220763158,1.336421053,4.390105263,0.131578947,0.973684,0.862081,0.0891673,0.0384144,0.0277778,0.1016,0.1016,0,0,0,
0.038315789,0.312368421,163.7105263,40.08931579,6.361973684,7.127684211,0.868421053,0.973684,0.876919,0.0668906,0.0321667,0.0277778,0.0617919,0.0617919,0,0,0,
0.014657895,0.288631579,163.5789474,40.93252632,6.346842105,6.929815789,0.868421053,0.973684,0.876919,0.0668906,0.0321667,0.0277778,0.0620371,0.0620371,0,0,0,
0.077136364,0.840386364,161.6,44.82381818,11.95915909,18.61254545,0.886363636,0.977273,0.702442,0.0210829,0.0100297,0.0238095,0.00669182,0.00669182,0,0,0,
0.408243902,-0.006,159.2,-10.63060976,1.611146341,7.004804878,0.609756098,0.97561,0.756275,0.0431711,0.0218908,0.025641,0.0255695,0.0255695,0,0,0,
0.106191489,0.777957447,159,41.96629787,10.63317021,24.73580851,0.531914894,0.978723,0.645,2.24E-08,0,0,,,0,0,0,
0.436488372,-0.01,155.8,-11.2685814,1.684837209,6.376581395,0.790697674,0.976744,0.731333,0.0152678,0.00499756,0,0.00171538,0.00171538,0,0,0,
0.45102439,-0.006,154.6,-10.29639024,1.664170732,5.146512195,0.12195122,0.97561,0.774675,0.051811,0.0262849,0.025641,0.0346985,0.0346985,0,0,0,
0.0694,0.8101,154.4,40.79408,12.38344,26.81452,1,0.98,0.592755,0.0250387,0.0092376,0.0208333,0.00617972,0.00617972,0,0,0,
0.4424,-0.0048,154.4,-10.67955,1.5526,5.044175,0.875,0.975,0.785359,0.0545288,0.0261176,0.0263158,0.0409548,0.0409548,0,0,0,
-0.073553191,-0.005744681,150.2978723,11.31242553,4.333893617,22.83019149,1,0.978723,0.645,2.24E-08,0,0,,0,,,,
0.483682927,-0.0042,147.4,-11.1174878,1.666268293,5.076146341,0.731707317,0.97561,0.761875,0.0459778,0.0241709,0.025641,0.0277771,0.0277771,0,0,0,
-0.002076923,2.183307692,146.7948718,30.87912821,4.86125641,8.287564103,0.871794872,0.974359,0.813474,0.0664586,0.0318934,0.027027,0.0629839,0.0629839,0,0,0,
0.448525,-0.007,144.4,-11.456825,1.573725,5.030325,0.875,0.975,0.785359,0.0545288,0.0261176,0.0263158,0.0407051,0.0407051,0,0,0,
-0.00554,0.73794,142.6,41.0652,13.1426,27.85716,1,0.98,0.587531,0.0195737,0.0092376,0.0208333,0.00653802,0.00653802,0,0,0,
-0.06516,-0.00844,142.12,11.4282,5.48812,25.94972,1,0.98,0.581,7.84E-09,0,0,,0,,,,
0.020815789,0.586394737,141,39.04089474,6.196894737,7.462184211,0.868421053,0.973684,0.876919,0.0668906,0.0321667,0.0277778,0.0615512,0.0615512,0,0,0,
0.05798,1.49264,140.4,37.12148,14.00636,26.37838,1,0.98,0.588857,0.025,0.0131664,0.0416667,0.00962494,0.00962494,0,0,0,
-0.024553191,-0.005042553,139.4042553,11.35421277,4.164744681,21.42848936,1,0.978723,0.645,2.24E-08,0,0,,0,,,,
0.041574468,3.074361702,139.1276596,37.18395745,13.3476383,24.24223404,1,0.978723,0.645,2.24E-08,0,0,,,0,0,0,
-0.02882,-0.00404,138.86,11.6978,3.20606,22.5019,1,0.98,0.582306,0.00914286,0.0130639,0.0416667,3.93E-05,0,1.83E-06,1.19E-05,2.56E-05,0.464669
0.382738095,-0.0052,137,-6.893761905,1.231261905,2.814595238,0,0.97619,0.741146,0.031814,0.0255514,0.075,0.0105939,0.0105939,0,0,0,
0.048414634,-0.0046,134.4878049,30.02931707,17.45160976,10.87478049,1,0.97561,0.757875,0.0432062,0.0206565,0.025641,0.0261101,0.0261101,0,0,0,
0.02222,0.83866,134,26.26124,11.77864,27.9734,0.92,0.98,0.574265,0.0355046,0.0131664,0.0416667,0.013164,0.013164,0,0,0,
0.182459459,,133.2693784,29.35902703,14.50340541,10.36709375,0,0.972973,0.933694,0.0329101,0.0245677,0.142857,0.0025516,0.0025516,0,0,0,
-0.021446809,-0.003510638,133.0425532,11.38029787,3.182234043,19.65142553,1,0.978723,0.645,2.24E-08,0,0,,0,,,,
0.075851064,-0.006723404,132.4468085,11.95191489,4.482574468,27.12853191,1,0.978723,0.645,2.24E-08,0,0,,0,,,,
0.63972,5.5576,132.29922,34.86356,6.93078,24.0388,0.8,0.98,0.607327,0.0789064,0.0372391,0.0208333,0.108453,0.108453,0,0,0,
0.135804878,0.822170732,132,43.44634146,7.492219512,18.28702439,0.12195122,0.97561,0.749875,0.0646419,0.0309047,0.025641,0.0589411,0.0589411,0,0,0,
0.46345,-0.0066,131.2,-11.50065,1.48305,5.619475,0.125,0.975,0.793692,0.0325141,0.0155733,0.0263158,0.0144339,0.0144339,0,0,0,
0.05492,1.16132,130.82,29.36684,5.80562,21.09316,0.62,0.98,0.587531,0.0195737,0.0092376,0.0208333,0.00642174,0.00642174,0,0,0,
0.163421053,0.276184211,130.3421053,41.69131579,5.689315789,10.01889474,1,0.973684,0.868135,0.0894185,0.043,0.0277778,0.106354,0.106354,0,0,0,
0.180815789,,129.9202368,31.41684211,12.6965,7.199363636,0,0.973684,0.911784,0.0225279,0.0108333,0.0277778,0.00672748,0.00672748,0,0,0,
0.018595745,-0.00512766,129.7446809,12.08531915,2.81787234,19.35744681,0.042553191,0.978723,0.645,2.24E-08,0,0,,0,,,,
0.061439024,,129.4869268,28.13487805,17.08573171,14.91347222,0.87804878,0.97561,0.782125,0.0217706,0.0104083,0.025641,0.00694531,0.00694531,0,0,0,
0.09172,0.7955,128.5,32.518,7.23466,20.38632,1,0.98,0.594163,0.0394532,0.0186195,0.0208333,0.0259088,0.0259088,0,0,0,
0.226978723,0.169574468,128.4468085,34.76348936,3.12293617,16.35776596,0.106382979,0.978723,0.638043,0.0201406,0.00954056,0.0222222,0.00638163,0.00638163,0,0,0,
0.001166667,0.260238095,127.6904762,29.82952381,3.677928571,5.302880952,0.047619048,0.97619,0.775756,0.133222,0.0769857,0.225,0.120622,0.120622,0,0,0,
0.031,2.244658537,127.3902439,24.50170732,7.390536585,12.41431707,1,0.97561,0.766,0.0214357,0.0102482,0.025641,0.00695515,0.00695515,0,0,0,
0.058658537,2.08895122,126.7073171,29.20409756,14.65458537,15.19895122,0.87804878,0.97561,0.756275,0.0437751,0.0146068,0.0512821,0.0271596,0.0271596,0,0,0,
-0.011468085,-0.006659574,125.9148936,12.07302128,2.937085106,20.93151064,0.382978723,0.978723,0.645,2.24E-08,0,0,,0,,,,
0.077368421,0.7925,125.7894737,43.47910526,3.306552632,5.933342105,0.131578947,0.973684,0.859486,0.1116,0.0536667,0.0277778,0.164181,0.164181,0,0,0,
0.028851852,1.862740741,124.7592593,37.40733333,13.67762963,23.12768519,1,0.981481,0.52817,0.0380676,0.0178891,0.0192308,0.0261049,0.0261049,0,0,0,
0.408707317,-0.0014,124.6,-6.928146341,1.226902439,3.34795122,0,0.97561,0.757875,0.0432062,0.0206565,0.025641,0.0259617,0.0259617,0,0,0,
0.06376,0.78134,122.84,30.781,11.21092,23.236,1,0.98,0.592837,0.0364562,0.0208497,0.0416667,0.0217673,0.0217673,0,0,0,
0.524461538,6.325358974,122.7179487,38.22841026,3.037897436,5.439974359,0,0.974359,0.822026,0.0441915,0.0212075,0.027027,0.0251342,0.0251342,0,0,0,
0.07256,1.1759,122.6,33.46116,11.3839,1.83208,0.9,0.98,0.587531,0.0195737,0.0092376,0.0208333,0.00641494,0.00641494,0,0,0,
0.015553191,-0.004404255,122.5957447,11.68259574,3.685510638,25.49085106,1,0.978723,0.645,2.24E-08,0,0,,0,,,,
0.026340426,-0.005042553,122.5531915,11.46293617,3.887085106,21.45312766,1,0.978723,0.645,2.24E-08,0,0,,0,,,,
-0.013204545,-0.005818182,121.8409091,12.06895455,3.052113636,19.12745455,0.931818182,0.977273,0.699419,0.0242803,0.0100297,0.0238095,0.000592118,0,0.000235289,0.000261108,9.57E-05,2.72781
-0.011425532,-0.00606383,121.7446809,11.5153617,3.59006383,20.39393617,1,0.978723,0.645,2.24E-08,0,0,,0,,,,
0.021829787,-0.005234043,121.7021277,12.10855319,2.442808511,17.78982979,0,0.978723,0.645,2.24E-08,0,0,,0,,,,
-0.03125,-0.005590909,121.6136364,11.58959091,3.526954545,23.54472727,1,0.977273,0.684302,0.0321563,0.0100297,0.0238095,0.00108665,0,0.000862071,0.000155805,6.88E-05,2.2654
0.025021277,-0.005021277,121.5319149,12.03910638,3.671021277,24.09119149,1,0.978723,0.642217,0.0131958,0.0165247,0.0666667,7.33E-05,0,1.86E-05,3.02E-05,2.45E-05,1.23423
0.08164,1.3091,121.48,32.96104,6.86018,23.3956,1,0.98,0.587531,0.0195737,0.0092376,0.0208333,0.00649858,0.00649858,0,0,0,
0.08062963,1.0335,121.3703704,34.51492593,12.57892593,31.2198,1,0.981481,0.52817,0.0380676,0.0178891,0.0192308,0.0259456,0.0259456,0,0,0,
0.050148936,5.399595745,121.106383,31.55697872,12.70291489,23.96904255,1,0.978723,0.645,2.24E-08,0,0,,,0,0,0,
0.08587037,1.293981481,120.8,32.91825926,13.6352963,1.775296296,0.907407407,0.981481,0.52817,0.0380676,0.0178891,0.0192308,0.0260902,0.0260902,0,0,0,
0.07162963,1.255407407,120.7222222,32.34962963,13.80387037,19.3828,0.907407407,0.981481,0.52817,0.0380676,0.0178891,0.0192308,0.0261297,0.0261297,0,0,0,
0.04,1.622276596,120.6808511,39.65693617,13.90478723,24.08265957,1,0.978723,0.642217,0.0131958,0.0134924,0.0444444,0.000204119,0.000204119,0,0,0,
0.15024,0.55448,120.68,36.747,13.18778,19.76,1,0.98,0.587531,0.0195737,0.0092376,0.0208333,0.00656541,0.00656541,0,0,0,
0.187833333,,120.6380556,29.31311111,13.80297222,9.831548387,0,0.972222,0.951286,0.0288236,0.0157648,0.0588235,0.0057304,0.0057304,0,0,0,
0.191921053,0.279631579,120.6315789,45.34294737,5.2845,9.505263158,0.894736842,0.973684,0.868135,0.0894185,0.043,0.0277778,0.106424,0.106424,0,0,0,
0.05,1.02008,120.42,32.80744,11.65766,17.6912,0.9,0.98,0.587531,0.0195737,0.0092376,0.0208333,0.00650624,0.00650624,0,0,0,
0.039703704,2.262537037,120.2962963,38.85903704,13.22072222,22.77266667,1,0.981481,0.55134,0.0545305,0.0219098,0.0576923,0.0267469,0.0267469,0,0,0,
-0.028045455,-0.004272727,120.2272727,11.34013636,2.943090909,19.12252273,0.431818182,0.977273,0.694884,0.0277851,0.017372,0.0714286,0.000724442,0,0.000205531,0.000441129,7.78E-05,5.67137
0.01884,3.776288889,119.99928,32.46212,7.17034,22.46755556,0.9,0.98,0.607327,0.0789064,0.0372391,0.0208333,0.105909,0.105909,0,0,0,
-0.0045,-0.00473913,119.5869565,11.29521739,3.038086957,19.27752174,0.826086957,0.978261,0.655111,0.0238244,0.013858,0.0454545,0.000574142,0,0.00020489,0.000319456,4.98E-05,6.41529
0.627314286,0.236914286,119.4857143,44.78314286,6.320371429,9.586314286,1,0.971429,0.965676,0.16213,0.078509,0.030303,0.324652,0.324652,0,0,0,
0.09002,0.3545,119.46,32.93908,8.05364,21.38718,1,0.98,0.587531,0.0195737,0.0092376,0.0208333,0.00645983,0.00645983,0,0,0,
0.0779,1.74476,119.36,30.38416,5.05278,22.3022,0,0.98,0.594163,0.0394532,0.0186195,0.0208333,inf,inf,0,0,0,
0.466625,-0.0044,119,-7.87795,1.424875,4.462875,0.125,0.975,0.785359,0.0545288,0.0261176,0.0263158,0.0406334,0.0406334,0,0,0,
-0.35228,1.09248,118.94,34.94196,11.36142,21.9124,1,0.98,0.587531,0.0195737,0.0092376,0.0208333,0.0063937,0.0063937,0,0,0,
0.07434,1.76742,118.92,28.77888,5.81606,22.66618,0.9,0.98,0.594163,0.0394532,0.0186195,0.0208333,0.0262009,0.0262009,0,0,0,
0.09542,1.5429,118.88,31.40292,7.12724,21.66028,1,0.98,0.587531,0.0195737,0.0092376,0.0208333,0.0064873,0.0064873,0,0,0,
0.0899,2.59938,118.78,30.78036,6.09162,22.61446,1,0.98,0.587531,0.0195737,0.0092376,0.0208333,0.00639876,0.00639876,0,0,0,
0.004510638,-0.005574468,118.3617021,12.01885106,2.594319149,18.92814894,0,0.978723,0.645,2.24E-08,0,0,,0,,,,
0.08042,0.84798,118.16,41.85984,12.81264,21.6108,1,0.98,0.587531,0.0195737,0.0092376,0.0208333,0.00641909,0.00641909,0,0,0,
0.08712,2.12224,117.92,31.13692,11.31432,17.78132,1,0.98,0.594163,0.0394532,0.0186195,0.0208333,0.0263535,0.0263535,0,0,0,
0.085564103,1.214384615,117.8461538,30.47574359,4.774179487,7.875179487,0.871794872,0.974359,0.813474,0.0664586,0.0318934,0.027027,0.0598037,0.0598037,0,0,0,
0.05636,0.73638,117.8,41.48932,17.08384,19.9036,1,0.98,0.587531,0.0195737,0.0092376,0.0208333,0.00653515,0.00653515,0,0,0,
0.10855102,3.683068182,117.7748163,30.79036735,6.296530612,19.08936364,0,0.979592,0.627875,0.0982735,0.0387738,0.0425532,0.154037,0.154037,0,0,0,
-0.186435897,5.237410256,117.7692308,35.82835897,2.168846154,4.437794872,0,0.974359,0.822026,0.0441915,0.0212075,0.027027,0.0272117,0.0272117,0,0,0,
-0.010217391,-0.004,117.7608696,11.83713043,3.110847826,23.93826087,0.630434783,0.978261,0.653667,0.0223454,0.00979912,0.0227273,0.000452421,0,0.000176616,0.000217291,5.85E-05,3.71354
0.151342105,0.249289474,117.6315789,45.71626316,6.068973684,11.81142105,1,0.973684,0.868135,0.0894185,0.043,0.0277778,0.106189,0.106189,0,0,0,
0.1997,5.815377778,117.33928,30.2302,7.76748,22.65873333,0.9,0.98,0.607327,0.0789064,0.0372391,0.0208333,0.104609,0.104609,0,0,0,
0.111390244,0.829195122,117.2,43.5957561,7.177609756,16.79636585,0.12195122,0.97561,0.757875,0.0432062,0.0206565,0.025641,0.0263395,0.0263395,0,0,0,
0.188676471,1.366647059,117.0294118,41.27111765,2.4565,5.916705882,0,0.970588,1.02852,0.164578,0.0799031,0.03125,0.327967,0.327967,0,0,0,
0.026510638,-0.005851064,117,11.45378723,3.465617021,20.68438298,1,0.978723,0.645,2.24E-08,0,0,,0,,,,
0.04094,2.6464,116.74,31.31844,6.23088,23.5555,0.9,0.98,0.587531,0.0195737,0.0092376,0.0208333,inf,inf,0,0,0,
0.207368421,,116.7360526,29.22284211,13.18934211,15.46406061,0,0.973684,0.913622,0.0357999,0.0185719,0.0833333,0.00606542,0.00606542,0,0,0,
0.04322,5.1464,116.66,30.34832,10.49318,17.71724,1,0.98,0.581,7.84E-09,0,0,,,0,0,0,
0.08536,1.24468,116.66,32.58488,7.11496,19.88162,0.92,0.98,0.587531,0.0195737,0.0092376,0.0208333,0.00651995,0.00651995,0,0,0,
0.067814815,0.65537037,116.6481481,36.55303704,12.58438889,21.46381481,1,0.981481,0.534302,0.057249,0.026903,0.0192308,0.0585172,0.0585172,0,0,0,
0.06242,1.07706,116.64,32.10064,7.44008,22.29176,1,0.98,0.581,7.84E-09,0,0,,,0,0,0,
0.08416,0.26414,116.36,31.4416,6.0072,19.36516,0.9,0.98,0.587531,0.0195737,0.0092376,0.0208333,0.00643609,0.00643609,0,0,0,
0.093723404,-0.002085106,116.3404255,11.74970213,2.950787234,27.2792766,0.510638298,0.978723,0.645,2.24E-08,0,0,,0,,,,
0.083722222,1.244537037,116.0925926,34.51974074,12.18083333,20.1496,1,0.981481,0.534302,0.057249,0.026903,0.0192308,0.0585434,0.0585434,0,0,0,
0.08114,0.88384,116,43.57164,12.36992,26.13484,1,0.98,0.587531,0.0195737,0.0092376,0.0208333,0.00637998,0.00637998,0,0,0,
0.072702128,-0.005723404,115.9361702,11.40885106,3.717595745,19.66548936,1,0.978723,0.645,2.24E-08,0,0,,0,,,,
0.07994,0.60464,115.92,32.03116,7.57998,20.6987,1,0.98,0.594163,0.0394532,0.0186195,0.0208333,0.0261434,0.0261434,0,0,0,
0.121384615,-0.0098,115.8205128,30.62302564,18.06605128,11.23687179,0.769230769,0.974359,0.822026,0.0441915,0.0212075,0.027027,0.026038,0.026038,0,0,0,
0.0522,0.57672,115.68,29.81232,11.64226,19.2902,0.9,0.98,0.587531,0.0195737,0.0092376,0.0208333,inf,inf,0,0,0,
0.14018,1.9892,115.6,30.52028,7.62356,23.45636,1,0.98,0.587531,0.0195737,0.0092376,0.0208333,inf,inf,0,0,0,
0.440425,-0.0076,115.6,-7.962375,1.4154,4.37385,0.125,0.975,0.785359,0.0545288,0.0261176,0.0263158,0.040698,0.040698,0,0,0,
-0.010391304,-0.005347826,115.5217391,11.85169565,2.67926087,21.53743478,0,0.978261,0.669556,0.0318702,0.00979912,0.0227273,0.00106145,0,0.000764418,0.000237531,5.95E-05,3.99229
0.0544,1.14868,115.52,31.5318,7.53022,22.6166,1,0.98,0.581,7.84E-09,0,0,,,0,0,0,
0.017574468,-0.005212766,115.5106383,11.81131915,4.180148936,20.73868085,1,0.978723,0.645,2.24E-08,0,0,,0,,,,
0.052268293,-0.0004,115.4634146,28.60609756,22.58246341,15.20480488,1,0.97561,0.751475,0.0610468,0.023059,0.0512821,0.0550989,0.0550989,0,0,0,
0.08266,1.94584,115.46,33.24796,5.5128,23.89546,0.34,0.98,0.594163,0.0394532,0.0186195,0.0208333,0.0261544,0.0261544,0,0,0,
-0.028574468,-0.004808511,115.4468085,11.45906383,3.158361702,19.0223617,0.978723404,0.978723,0.645,2.24E-08,0,0,,0,,,,
0.08512,0.7291,115.34,29.6176,12.03158,21.491,0.9,0.98,0.587531,0.0195737,0.0092376,0.0208333,0.00650648,0.00650648,0,0,0,
0.04484,0.5949,115.26,30.09352,10.9911,21.422,0.8,0.98,0.587531,0.0195737,0.0092376,0.0208333,0.0063074,0.0063074,0,0,0,
0.16898,1.074133333,115.21936,31.0402,12.09894,,0.9,0.98,0.613857,0.0984801,0.0464767,0.0208333,0.166115,0.166115,0,0,0,
0.364634146,-0.0058,115.2,-10.94543902,2.567097561,8.049219512,1,0.97561,0.757875,0.0432062,0.0206565,0.025641,0.0260032,0.0260032,0,0,0,
0.085571429,0.827904762,115.2,43.73733333,6.993904762,16.65240476,0.119047619,0.97619,0.739537,0.0644632,0.0366173,0.125,0.0516516,0.0516516,0,0,0,
0.09266,9.4917,115.12,34.898,6.6427,27.38462,1,0.98,0.587531,0.0195737,0.0092376,0.0208333,0.00650531,0.00650531,0,0,0,
0.026097561,0.820658537,115,43.01282927,7.281707317,21.5524,0.12195122,0.97561,0.749875,0.0646419,0.0309047,0.025641,0.0586644,0.0586644,0,0,0,
0.09295122,0.818926829,115,43.42897561,7.084536585,16.97670732,0.12195122,0.97561,0.757875,0.0432062,0.0206565,0.025641,0.0267042,0.0267042,0,0,0,
0.043210526,0.337394737,114.9210526,43.59757895,6.739026316,7.314447368,0.868421053,0.973684,0.876919,0.0668906,0.0321667,0.0277778,inf,inf,0,0,0,
0.08634,2.32642,114.92,29.60484,8.18484,23.52388,1,0.98,0.587531,0.0195737,0.0092376,0.0208333,0.00655901,0.00655901,0,0,0,
0.05746,2.05156,114.9,34.96848,9.3318,21.90196,1,0.98,0.587531,0.0195737,0.0092376,0.0208333,0.00644362,0.00644362,0,0,0,
0.026361702,5.983085106,114.893617,34.68348936,13.452,26.02561702,1,0.978723,0.645,2.24E-08,0,0,,,0,0,0,
-0.002978723,-0.006,114.6170213,11.23612766,4.060553191,20.9067234,1,0.978723,0.645,2.24E-08,0,0,,0,,,,
0.08487037,1.050555556,114.4444444,31.34451852,12.47518519,22.5846,1,0.981481,0.534302,0.057249,0.026903,0.0192308,0.0596976,0.0596976,0,0,0,
0.33797561,-0.008,114.4,-11.22207317,2.667341463,8.870926829,0.87804878,0.97561,0.757875,0.0432062,0.0206565,0.025641,0.0263876,0.0263876,0,0,0,
0.02674,0.83564,114.36,36.0722,12.9094,23.752,0.9,0.98,0.580898,0.0294408,0.0208497,0.0416667,0.00905046,0.00905046,0,0,0,
0.024203704,0.559944444,114.3333333,36.53218519,13.08155556,21.62951852,1,0.981481,0.52817,0.0380676,0.0178891,0.0192308,0.0260015,0.0260015,0,0,0,
0.100764706,1.29345098,114.0980392,39.52196078,11.5677451,22.2712,1,0.980392,0.5537,0.032407,0.00928571,0.0204082,0.00819521,0.00819521,0,0,0,
0.08492,0.47668,114.08,31.63512,6.9442,20.25216,0.9,0.98,0.587531,0.0195737,0.0092376,0.0208333,0.00642886,0.00642886,0,0,0,
0.151018519,1.226611111,114.037037,34.16322222,10.97709259,22.7634,0.907407407,0.981481,0.533075,0.0403475,0.0200317,0.0384615,0.024214,0.024214,0,0,0,
0.009093023,1.946697674,113.9767442,30.06395349,10.21306977,11.72765116,1,0.976744,0.722071,0.0408008,0.0224896,0.0487805,0.0159108,0.0159108,0,0,0,
0.107,0.829902439,113.8,43.17814634,7.215414634,17.01036585,0.12195122,0.97561,0.757875,0.0432062,0.0206565,0.025641,0.0265467,0.0265467,0,0,0,
0.10426,3.100333333,113.75926,33.96972,6.01608,21.43115556,0.9,0.98,0.613857,0.0984801,0.0464767,0.0208333,0.162047,0.162047,0,0,0,
0.016652174,-0.005717391,113.7391304,11.58882609,4.174913043,22.13680435,1,0.978261,0.655111,0.0238244,0.0195982,0.0909091,0.000521142,0,0.000153929,0.000211,0.000156213,1.35072
0.02666,0.76458,113.7,35.28528,11.04552,18.943,0.88,0.98,0.587531,0.0195737,0.0092376,0.0208333,0.00642708,0.00642708,0,0,0,
-0.05712,0.9599,113.66,36.93272,16.02522,20.2002,1,0.98,0.587531,0.0195737,0.0092376,0.0208333,0.0064273,0.0064273,0,0,0,
0.04702,1.13948,113.56,36.70528,20.88954,22.0066,1,0.98,0.588857,0.025,0.0131664,0.0416667,0.00934388,0.00934388,0,0,0,
0.04528,1.08168,113.56,30.85688,11.74868,22.4496,1,0.98,0.594163,0.0394532,0.0186195,0.0208333,0.0255813,0.0255813,0,0,0,
0.06472,0.5973,113.52,29.6352,11.2542,20.3708,0.9,0.98,0.587531,0.0195737,0.0092376,0.0208333,0.00648293,0.00648293,0,0,0,
0.00262,5.585711111,113.51936,33.99468,7.54564,22.93633333,0.9,0.98,0.607327,0.0789064,0.0372391,0.0208333,0.105537,0.105537,0,0,0,
0.05528,1.1365,113.46,30.00068,6.11336,21.3659,1,0.98,0.594163,0.0394532,0.0186195,0.0208333,0.0260044,0.0260044,0,0,0,
0.001234043,-0.00312766,113.4468085,11.84404255,3.54287234,27.65285106,0.872340426,0.978723,0.645,2.24E-08,0,0,,0,,,,
0.088736842,0.244394737,113.3947368,42.42621053,6.483157895,10.78721053,1,0.973684,0.868135,0.0894185,0.043,0.0277778,0.105899,0.105899,0,0,0,
0.083759259,1.029444444,113,35.01511111,12.43487037,2.646574074,1,0.981481,0.52817,0.0380676,0.0178891,0.0192308,0.0257983,0.0257983,0,0,0,
0.391119048,-0.0014,113,-5.798047619,1.197666667,2.878214286,0,0.97619,0.741878,0.0394982,0.0227689,0.025,0.0193214,0.0193214,0,0,0,
0.06092,1.199,112.98,38.74388,10.9214,24.6696,0.82,0.98,0.587531,0.0195737,0.0092376,0.0208333,0.00642326,0.00642326,0,0,0,
0.06584,1.75024,112.96,33.13916,8.16794,21.87788,1,0.98,0.594163,0.0394532,0.0186195,0.0208333,0.0262303,0.0262303,0,0,0,
0.19166,1.00804,112.86,40.41876,21.41146,20.885,1,0.98,0.587531,0.0195737,0.0092376,0.0208333,0.00652569,0.00652569,0,0,0,
0.0603,0.66314,112.8,30.7788,12.5018,22.0774,0.9,0.98,0.587531,0.0195737,0.0092376,0.0208333,0.00649156,0.00649156,0,0,0,
-0.013185185,1.873481481,112.6851852,31.32955556,11.09118519,27.5318,0.962962963,0.981481,0.52817,0.0380676,0.0178891,0.0192308,0.0260882,0.0260882,0,0,0,
0.39202439,-0.0066,112.6,-10.79419512,1.93197561,5.785658537,0.87804878,0.97561,0.757875,0.0432062,0.0206565,0.025641,0.0260391,0.0260391,0,0,0,
0.038860465,-0.0032,112.5581395,28.74748837,19.15660465,12.93748837,1,0.976744,0.731214,0.0441856,0.0246106,0.0731707,0.0190446,0.0190446,0,0,0,
0.02744,1.56168,112.46,38.201,11.27316,21.6352,0.9,0.98,0.588857,0.025,0.0208497,0.0416667,0.00912835,0.00912835,0,0,0,
0.376095238,-0.0054,112.4,-10.47757143,1.875880952,6.717214286,1,0.97619,0.722366,0.0533384,0.0254563,0.025,0.0404184,0.0404184,0,0,0,
0.00986,0.969555556,112.39922,34.10344,12.31826,,0.9,0.98,0.613857,0.0984801,0.0464767,0.0208333,0.1663,0.1663,0,0,0,
0.138219512,1.49397561,112.3658537,31.47653659,8.184439024,9.017341463,0.536585366,0.97561,0.751475,0.0610468,0.0325596,0.0512821,0.0509243,0.0509243,0,0,0,
-0.00262,0.93174,112.26,34.77824,13.04286,22.2374,0.9,0.98,0.587531,0.0195737,0.0092376,0.0208333,0.00640611,0.00640611,0,0,0,
0.02712766,-0.00412766,112.2553191,11.80289362,4.297914894,22.21223404,1,0.978723,0.645,2.24E-08,0,0,,0,,,,
0.07032,2.867022222,112.23928,32.61712,6.94796,22.22782222,0.9,0.98,0.607327,0.0789064,0.0372391,0.0208333,0.107473,0.107473,0,0,0,
-0.00566,0.73122,112.22,40.96556,13.68552,23.175,1,0.98,0.587531,0.0195737,0.0092376,0.0208333,0.00653065,0.00653065,0,0,0,
0.004680851,4.511617021,112.212766,35.63123404,13.38965957,27.00376596,1,0.978723,0.640826,0.0159768,0.0134924,0.0444444,3.67E-05,3.67E-05,0,0,0,
0.10312963,1.209537037,112.2037037,31.167,12.29051852,25.2356,1,0.981481,0.52817,0.0380676,0.0178891,0.0192308,0.0259323,0.0259323,0,0,0,
0.0907,0.24242,112.14,33.75936,7.7159,21.67812,1,0.98,0.587531,0.0195737,0.0092376,0.0208333,0.00647831,0.00647831,0,0,0,
0.056680851,5.085309524,112.1269574,28.23459574,6.758851064,19.73509524,0,0.978723,0.673043,0.0811917,0.0384604,0.0222222,0.104521,0.104521,0,0,0,
-0.037659574,-0.004808511,112.106383,11.68519149,2.794510638,24.32655319,0.085106383,0.978723,0.645,2.24E-08,0,0,,0,,,,
0.033729167,3.593883721,112.1034792,28.91,6.639625,19.5687907,0,0.979167,0.654745,0.0910811,0.048405,0.0434783,0.128046,0.128046,0,0,0,
0.016222222,0.7785,112.0925926,37.28940741,11.66583333,21.10716667,1,0.981481,0.534302,0.057249,0.026903,0.0192308,0.0584306,0.0584306,0,0,0,
0.005684211,0.816026316,112.0263158,50.17963158,2.905026316,4.952342105,0.131578947,0.973684,0.877054,0.121993,0.0547492,0.0555556,0.184322,0.184322,0,0,0,
0.074407407,0.871759259,112,28.33340741,12.46751852,25.2916,0.907407407,0.981481,0.533075,0.0403475,0.0200317,0.0384615,0.0244134,0.0244134,0,0,0,
0.04264,4.43576,111.96,32.85688,10.954,18.26498,1,0.98,0.581,7.84E-09,0,0,,,0,0,0,
0.014680851,-0.005851064,111.8723404,11.66034043,4.083319149,21.27406383,1,0.978723,0.645,2.24E-08,0,0,,0,,,,
0.389925,-0.0044,111.8,-11.2849,1.7757,6.525025,0.6,0.975,0.777974,0.053358,0.0266285,0.0263158,0.0367653,0.0367653,0,0,0,
0.07322,1.7038,111.78,31.7928,11.24654,22.783,0.98,0.98,0.586204,0.0472643,0.0264343,0.104167,0.0310538,0.0310538,0,0,0,
0.084,2.640133333,111.7555556,29.85297778,13.93244444,15.04375556,0.888888889,0.977778,0.690614,0.0494049,0.0139108,0.0465116,0.0178758,0.0178758,0,0,0,
0.434121951,-0.0034,111.6,-10.8592439,1.723414634,5.482073171,1,0.97561,0.757875,0.0432062,0.0206565,0.025641,0.0259499,0.0259499,0,0,0,
0.0877,0.19856,111.56,32.98388,5.393,19.52232,0.04,0.98,0.588837,0.0211968,0.016,0.0625,0.00623539,0.00623539,0,0,0,
0.07756,1.42686,111.5,31.05972,6.15908,21.92782,1,0.98,0.587531,0.0195737,0.0092376,0.0208333,0.00640877,0.00640877,0,0,0,
0.068795455,-0.0068,111.4545455,27.87768182,17.16165909,12.56422727,1,0.977273,0.702442,0.0210829,0.0100297,0.0238095,0.00656256,0.00656256,0,0,0,
0.111304348,0.799891304,111.4444444,45.23047826,11.60426087,19.32642424,0.608695652,0.978261,0.639489,0.0511516,0.0258123,0.0909091,0.0157275,0.0157275,0,0,0,
0.064196078,1.377843137,111.4,38.62203922,11.78003922,2.371235294,1,0.980392,0.568,0.026264,0.013132,0.0408163,0.0036283,0.0036283,0,0,0,
0.153853659,-0.0022,111.4,-9.793634146,2.035609756,8.618439024,0.926829268,0.97561,0.757875,0.0432062,0.0206565,0.025641,0.0270805,0.0270805,0,0,0,
0.042342105,0.295815789,111.3421053,41.28942105,8.018657895,12.247,1,0.973684,0.861216,0.107587,0.0547164,0.0555556,0.160362,0.160362,0,0,0,
0.04994,1.21684,111.32,42.28156,17.67812,24.6368,1,0.98,0.594163,0.0394532,0.0186195,0.0208333,0.0265297,0.0265297,0,0,0,
0.046981481,0.656166667,111.2962963,36.86462963,10.80712963,19.77090741,1,0.981481,0.533075,0.0540177,0.0200317,0.0384615,0.0513799,0.0513799,0,0,0,
-0.01654,2.17248,111.28,36.12652,8.39254,25.2043,1,0.98,0.587531,0.0195737,0.0092376,0.0208333,0.00644455,0.00644455,0,0,0,
0.0813,0.23664,111.18,33.22604,7.13054,20.1479,1,0.98,0.587531,0.0195737,0.0092376,0.0208333,0.00643103,0.00643103,0,0,0,
0.0779,1.91016,111.16,33.66068,9.41402,22.63052,1,0.98,0.594163,0.0394532,0.0186195,0.0208333,0.026194,0.026194,0,0,0,
0.08076,0.872276596,111.07956,25.51144,13.024,20.7425,0.96,0.98,0.584918,0.0358201,0.0246589,0.0833333,0.00254888,0.00254888,0,0,0,
0.14878,6.35702,111.04,33.67496,5.38786,28.5714,0.36,0.98,0.587531,0.0195737,0.0092376,0.0208333,0.00648437,0.00648437,0,0,0,
0.085111111,1.154222222,111.037037,31.54018519,12.25518519,27.9422,1,0.981481,0.52817,0.0380676,0.0178891,0.0192308,0.0259293,0.0259293,0,0,0,
0.016052632,0.257315789,111.0263158,46.29678947,5.339552632,8.210394737,1,0.973684,0.876919,0.0668906,0.0321667,0.0277778,0.0622936,0.0622936,0,0,0,
0.081481481,0.847592593,111,27.26403704,12.21862963,28.56659259,0.962962963,0.981481,0.52817,0.0380676,0.0178891,0.0192308,0.0259095,0.0259095,0,0,0,
0.215888889,0.130888889,110.9722222,43.6815,5.17075,5.98425,0,0.972222,0.921857,0.114677,0.055394,0.0294118,0.165916,0.165916,0,0,0,
0.04508,0.81626,110.94,36.52836,11.947,20.22968,1,0.98,0.587531,0.0195737,0.0092376,0.0208333,0.00642432,0.00642432,0,0,0,
0.07306,1.63988,110.82,33.76432,9.0915,22.78202,1,0.98,0.59151,0.0331355,0.0208497,0.0416667,0.0167277,0.0167277,0,0,0,
0.09886,0.70464,110.74,30.785,5.67138,22.16568,0.6,0.98,0.587531,0.0195737,0.0092376,0.0208333,inf,inf,0,0,0,
0.130787234,1.483808511,110.7234043,32.55540426,10.53240426,13.71348936,0.893617021,0.978723,0.656304,0.0249095,0.00968963,0.0222222,0.00232461,0.00232461,0,0,0,
0.075833333,1.080759259,110.7222222,34.82692593,11.73603704,26.8456,0.925925926,0.981481,0.52817,0.0380676,0.0178891,0.0192308,0.0258645,0.0258645,0,0,0,
0.09728,0.58254,110.72,32.23892,7.47146,21.18332,1,0.98,0.587531,0.0195737,0.0092376,0.0208333,0.00641792,0.00641792,0,0,0,
0.211102564,0.334153846,110.6410256,34.09117949,1.395589744,5.073974359,0.128205128,0.974359,0.829368,0.097975,0.0470181,0.027027,0.129529,0.129529,0,0,0,
0.034074074,0.837703704,110.537037,27.32548148,12.12987037,28.082,1,0.981481,0.536755,0.0415909,0.0126499,0.0384615,0.0242964,0.0242964,0,0,0,
0.00754,0.57174,110.5,36.12292,11.4374,20.49116,1,0.98,0.575592,0.0344818,0.0131664,0.0416667,0.0123771,0.0123771,0,0,0,
0.077,0.83914,110.4,33.01988,7.31876,21.29194,1,0.98,0.587531,0.0195737,0.0092376,0.0208333,0.00649521,0.00649521,0,0,0,
0.182631579,0.072105263,110.3157895,37.67657895,4.564947368,5.819894737,0.131578947,0.973684,0.859486,0.1116,0.0536667,0.0277778,0.163305,0.163305,0,0,0,
0.08836,0.17286,110.26,33.08332,7.30008,20.5205,1,0.98,0.587531,0.0195737,0.0092376,0.0208333,0.00643683,0.00643683,0,0,0,
0.08148,0.83768,110.2,26.14052,11.82072,28.9378,1,0.98,0.584878,0.0242355,0.0131664,0.0416667,0.00732454,0.00732454,0,0,0,
0.08298,0.79828,110.18,41.66564,14.43506,19.275,0.94,0.98,0.594163,0.0394532,0.0186195,0.0208333,0.0262855,0.0262855,0,0,0,
0.06834,1.13998,110.16,32.68688,7.54154,21.12544,1,0.98,0.587531,0.0195737,0.0092376,0.0208333,0.00646426,0.00646426,0,0,0,
0.10374,1.70984,110.12,31.07932,6.01784,22.87044,0.98,0.98,0.587531,0.0195737,0.0092376,0.0208333,0.0063874,0.0063874,0,0,0,
0.06138,0.71342,110.06,35.1412,13.64434,20.03436,1,0.98,0.587531,0.0195737,0.0092376,0.0208333,0.00645859,0.00645859,0,0,0,
0.075019231,1.386884615,110.0192308,37.74911538,11.91780769,25.1758,1,0.980769,0.55551,0.0320508,0.013,0.04,0.00769208,0.00769208,0,0,0,
0.071,0.1797,109.68,33.20252,7.01456,19.81744,1,0.98,0.587531,0.0195737,0.0092376,0.0208333,0.00641092,0.00641092,0,0,0,
0.3997,-0.0068,109.6,-11.7904,1.5969,5.445175,0.875,0.975,0.785359,0.0545288,0.0261176,0.0263158,0.0409275,0.0409275,0,0,0,
0.09202,0.46164,109.6,31.54324,5.08202,20.65148,0,0.98,0.587531,0.0195737,0.0092376,0.0208333,0.00651354,0.00651354,0,0,0,
0.020979592,-0.006020408,109.5714286,11.49510204,5.147183673,24.82714286,1,0.979592,0.605,0.0313117,0.00933536,0.0212766,0.000974591,0,0.000733782,0.000194815,4.60E-05,4.23574
0.08128,0.33524,109.48,31.13316,7.15292,20.31266,0.9,0.98,0.587531,0.0195737,0.0092376,0.0208333,0.00645668,0.00645668,0,0,0,
0.08678,1.7609,109.4,30.05132,7.13324,21.44172,1,0.98,0.586224,0.0177051,0.0130639,0.0416667,0.00407171,0.00407171,0,0,0,
0.071703704,1.111203704,109.3333333,36.05196296,11.25690741,21.116,0.907407407,0.981481,0.542887,0.0428753,0.0200317,0.0384615,0.0233081,0.0233081,0,0,0,
0.098692308,5.963230769,109.3269231,28.98592308,9.305615385,18.52030769,0.903846154,0.980769,0.552863,0.0434,0.0158405,0.06,0.021902,0.021902,0,0,0,
0.12836,0.82488,109.32,40.65596,13.99558,21.1808,1,0.98,0.588837,0.0211968,0.0092376,0.0208333,0.00622873,0.00622873,0,0,0,
0.032390244,-0.0044,108.8536585,28.21492683,18.48663415,14.12878049,1,0.97561,0.757875,0.0432062,0.0206565,0.025641,0.027292,0.027292,0,0,0,
0.460421053,-0.0038,108.8,-7.624157895,1.397473684,4.706236842,0.131578947,0.973684,0.845784,0.0553208,0.0273582,0.0277778,0.0389188,0.0389188,0,0,0,
0.221871795,-0.0064,108.7629231,11.99241026,2.19925641,27.7244,1,0.974359,0.813474,0.0664586,0.0318934,0.027027,0.0566654,0.0471653,0.00950011,0,0,
0.422425,-0.0016,108.6,-7.78575,1.498525,4.797775,0.125,0.975,0.777154,0.0762049,0.0364998,0.0263158,0.0789143,0.0789143,0,0,0,
0.0999,1.3335,108.56,29.70116,5.5323,21.67754,0.44,0.98,0.594163,0.0394532,0.0186195,0.0208333,0.025933,0.025933,0,0,0,
0.042660377,1.928566038,108.3962264,31.3629434,10.8645283,22.936,0.660377358,0.981132,0.538404,0.042219,0.018134,0.0784314,0.024372,0.024372,0,0,0,
0.08916,0.35328,108.36,30.83028,6.75482,19.75758,0.9,0.98,0.587531,0.0195737,0.0092376,0.0208333,0.00641402,0.00641402,0,0,0,
0.06332,0.9265,108.3,32.00672,12.3888,25.5632,1,0.98,0.587531,0.0195737,0.0092376,0.0208333,0.00642895,0.00642895,0,0,0,
0.079538462,1.87525641,108.2820513,37.38758974,11.59371795,14.03910256,1,0.974359,0.805053,0.0883831,0.0424149,0.027027,0.108543,0.108543,0,0,0,
0.1032,0.84472,108.28,30.70888,6.33054,21.54242,1,0.98,0.594163,0.0394532,0.0186195,0.0208333,0.025831,0.025831,0,0,0,
0.112552632,0.286657895,108.2105263,40.99084211,7.023552632,10.76157895,1,0.973684,0.876919,0.0668906,0.0321667,0.0277778,0.0594611,0.0594611,0,0,0,
0.0401,1.33196,108.04,39.38764,11.26676,24.9848,0.96,0.98,0.587531,0.0195737,0.0092376,0.0208333,0.00645743,0.00645743,0,0,0,
0.08694,0.84828,108.02,33.07964,11.4558,18.21046,1,0.98,0.587531,0.0195737,0.0092376,0.0208333,0.0064294,0.0064294,0,0,0,
0.058862745,1.074372549,107.7058824,31.51356863,12.73729412,18.5786,0.901960784,0.980392,0.5627,0.0414065,0.0130314,0.0408163,0.0201082,0.0201082,0,0,0,
0.06432,0.47074,107.7,30.69784,5.03662,21.91582,0.1,0.98,0.594163,0.0394532,0.0186195,0.0208333,0.0263227,0.0263227,0,0,0,
0.073414634,-0.009,107.5853659,33.99868293,16.12717073,8.81097561,0.463414634,0.97561,0.749875,0.0646419,0.0309047,0.025641,0.0586163,0.0586163,0,0,0,
0.06858,2.15336,107.58,30.52412,12.15568,18.52102,0.9,0.98,0.587531,0.0195737,0.0092376,0.0208333,0.00642183,0.00642183,0,0,0,
0.06982,1.1714,107.56,32.9934,10.74614,18.796,0.62,0.98,0.587531,0.0195737,0.0092376,0.0208333,0.00641259,0.00641259,0,0,0,
0.04768,0.90562,107.48,24.48488,12.34322,15.072,0.9,0.98,0.594163,0.0394532,0.0186195,0.0208333,0.0262031,0.0262031,0,0,0,
0.0875,0.18568,107.44,31.4954,6.7719,20.03056,0.9,0.98,0.592837,0.0364562,0.0131664,0.0416667,0.0213906,0.0213906,0,0,0,
0.06848,0.83688,107.42,36.0054,11.14698,21.2288,1,0.98,0.594163,0.0394532,0.0186195,0.0208333,0.0262232,0.0262232,0,0,0,
0.09456,0.2787,107.42,31.81804,5.24106,20.66458,0,0.98,0.587531,0.0195737,0.0092376,0.0208333,0.0064347,0.0064347,0,0,0,
0.09974359,0.632333333,107.3589744,30.59446154,5.481205128,8.628512821,1,0.974359,0.806737,0.0845237,0.0449492,0.0810811,0.0957844,0.0957844,0,0,0,
0.064803922,0.817470588,107.3529412,37.27482353,10.88686275,20.8218,0.843137255,0.980392,0.5783,0.0522046,0.0226288,0.0612245,0.0337834,0.0337834,0,0,0,
0.128021277,-0.0072,107.3404255,29.28868085,20.21261702,13.57723404,0.893617021,0.978723,0.645,2.24E-08,0,0,,,0,0,0,
0.03992,0.65198,107.28,35.7556,12.68424,19.69408,1,0.98,0.587531,0.0195737,0.0092376,0.0208333,0.00637343,0.00637343,0,0,0,
0.07858,0.8761,107.22,45.07712,12.19546,20.2246,1,0.98,0.587531,0.0195737,0.0092376,0.0208333,0.00644919,0.00644919,0,0,0,
0.42225,-0.0022,107.2,-12.0383,1.768625,5.591375,0.875,0.975,0.785359,0.0545288,0.0261176,0.0263158,0.0406424,0.0406424,0,0,0,
0.112255319,0.206170213,107.1914894,34.79034043,2.70487234,14.39282979,0.106382979,0.978723,0.645,2.24E-08,0,0,,,0,0,0,
0.10056,0.3169,107.18,31.19588,5.5701,21.72956,0.34,0.98,0.587531,0.0195737,0.0092376,0.0208333,0.00649428,0.00649428,0,0,0,
0.08632,5.569044444,107.13934,32.2822,7.36922,22.33402222,0.9,0.98,0.607327,0.0789064,0.0372391,0.0208333,0.103556,0.103556,0,0,0,
0.042439024,1.855243902,107.0243902,22.34873171,8.858829268,12.8365122,1,0.97561,0.757875,0.0432062,0.0206565,0.025641,0.0277195,0.0277195,0,0,0,
0.08434,1.17148,107,35.7066,11.70318,18.2792,0.9,0.98,0.587531,0.0195737,0.0092376,0.0208333,0.00646341,0.00646341,0,0,0,
0.11038,2.2396,106.88,35.43112,9.41322,22.69738,1,0.98,0.587531,0.0195737,0.0092376,0.0208333,0.00645922,0.00645922,0,0,0,
0.03674,0.5311,106.8,34.93764,7.49782,20.40812,1,0.98,0.587531,0.0195737,0.0092376,0.0208333,0.00643826,0.00643826,0,0,0,
0.387463415,-0.0068,106.8,-10.63846341,1.494512195,4.518878049,0.12195122,0.97561,0.757875,0.0432062,0.0206565,0.025641,0.0257074,0.0257074,0,0,0,
0.077137255,3.406431373,106.745098,28.6614902,9.259627451,18.70731373,0.901960784,0.980392,0.5835,0.0488004,0.0292285,0.0408163,0.032556,0.032556,0,0,0,
0.06876,1.22898,106.64,29.51536,6.03062,21.15358,1,0.98,0.594163,0.0394532,0.0186195,0.0208333,0.0261389,0.0261389,0,0,0,
0.05202,0.92602,106.54,38.06316,11.2683,23.2636,1,0.98,0.594163,0.0394532,0.0186195,0.0208333,0.0259739,0.0259739,0,0,0,
0.03762,1.05948,106.52,35.98176,11.26154,20.16692,1,0.98,0.587531,0.0195737,0.0092376,0.0208333,0.00641514,0.00641514,0,0,0,
0.41627027,0.230432432,106.5135135,37.924,6.066783784,9.810810811,0.648648649,0.972973,0.82975,0.151288,0.0809806,0.2,0.132117,0.132117,0,0,0,
0.282692308,-0.0024,106.5063077,11.77923077,1.76625641,22.1004,0.435897436,0.974359,0.808342,0.0668072,0.033636,0.0540541,0.0536145,0.0413556,0.0122589,0,0,
0.05532,0.7896,106.5,27.19472,10.87574,26.3618,0.84,0.98,0.587531,0.0195737,0.0092376,0.0208333,0.00648485,0.00648485,0,0,0,
-0.0106,1.32906,106.42,35.40088,11.08104,22.4654,1,0.98,0.580898,0.0294408,0.0208497,0.0416667,0.00920405,0.00920405,0,0,0,
0.374878049,-0.005,106.4,-9.707536585,2.013878049,6.517731707,1,0.97561,0.753075,0.0429176,0.0224825,0.025641,0.0240288,0.0240288,0,0,0,
0.07486,0.85722,106.34,32.0548,5.43214,22.1045,0.12,0.98,0.594163,0.0394532,0.0186195,0.0208333,0.0262591,0.0262591,0,0,0,
0.06306,3.410622222,106.27928,30.24216,7.16862,20.67017778,0.48,0.98,0.607327,0.0789064,0.0372391,0.0208333,0.105447,0.105447,0,0,0,
0.09488,0.43792,106.26,32.30292,6.20602,21.32988,1,0.98,0.587531,0.0195737,0.0092376,0.0208333,0.00641834,0.00641834,0,0,0,
0.0775,0.26362,106.24,30.16584,4.76996,20.76752,0,0.98,0.594163,0.0394532,0.0186195,0.0208333,0.026175,0.026175,0,0,0,
0.12182,1.54666,106.16,30.75736,7.9283,22.1307,1,0.98,0.594163,0.0394532,0.0186195,0.0208333,0.0262292,0.0262292,0,0,0,
-0.011,0.763377778,105.99936,35.2934,9.52242,,0.12,0.98,0.607327,0.0789064,0.0372391,0.0208333,0.103242,0.103242,0,0,0,
0.003191489,-0.006,105.9787234,11.32617021,4.235893617,21.35385106,1,0.978723,0.645,2.24E-08,0,0,,0,,,,
0.495605263,0.246789474,105.9473684,39.15878947,4.160421053,15.35734211,0.947368421,0.973684,0.876919,0.0668906,0.0321667,0.0277778,0.0597478,0.0597478,0,0,0,
0.0854,0.87224,105.88,30.5346,7.26598,20.44222,1,0.98,0.59151,0.0331355,0.0208497,0.0416667,inf,inf,0,0,0,
0.04652,1.6644,105.8,30.21784,9.32674,19.36632,1,0.98,0.594163,0.0394532,0.0186195,0.0208333,0.0261892,0.0261892,0,0,0,
0.412439024,-0.0008,105.8,-6.740390244,1.289365854,4.02295122,0.12195122,0.97561,0.794225,0.069644,0.0225195,0.025641,0.0574322,0.0574322,0,0,0,
0.148615385,1.129403846,105.7115385,31.37026923,11.94288462,25.1238,1,0.980769,0.554137,0.0469677,0.0158405,0.06,0.0281761,0.0281761,0,0,0,
0.07648,3.408844444,105.65926,33.52932,6.80528,22.13337778,0.9,0.98,0.613857,0.0984801,0.0464767,0.0208333,0.164079,0.164079,0,0,0,
0.08758,0.90864,105.6,43.55428,12.47986,21.4014,1,0.98,0.587531,0.0195737,0.0092376,0.0208333,0.00645879,0.00645879,0,0,0,
0.0823,1.26286,105.56,34.53708,8.7676,21.9791,1,0.98,0.587531,0.0195737,0.0092376,0.0208333,0.00639267,0.00639267,0,0,0,
0.0862,1.6097,105.55,25.02,6.5881,10.771775,1,0.975,0.785795,0.0627452,0.0256961,0.0789474,0.0416543,0.0416543,0,0,0,
0.0941,1.04384,105.5,31.94764,11.0741,17.43596,0.9,0.98,0.587531,0.0195737,0.0092376,0.0208333,0.00642209,0.00642209,0,0,0,
0.054038462,1.2015,105.4423077,36.901,10.58901923,21.7504,0.423076923,0.980769,0.564333,0.0515118,0.0224013,0.06,0.0334579,0.0334579,0,0,0,
0.08708,1.7257,105.44,29.78076,6.05356,21.30616,0.78,0.98,0.592837,0.0364562,0.0131664,0.0416667,0.0213569,0.0213569,0,0,0,
0.09164,0.28676,105.42,30.53808,5.5555,20.55204,0.14,0.98,0.587531,0.0195737,0.0092376,0.0208333,0.00645374,0.00645374,0,0,0,
0.0849,0.6782,105.38,33.35816,12.7693,18.92834,1,0.98,0.587531,0.0195737,0.0092376,0.0208333,0.00641956,0.00641956,0,0,0,
0.10806,1.302844444,105.29934,33.29572,11.42154,,0.9,0.98,0.613857,0.0984801,0.0464767,0.0208333,0.16521,0.16521,0,0,0,
0.133414634,0.823414634,105.195122,35.76302439,1.494585366,5.382073171,0.12195122,0.97561,0.764375,0.0274186,0.0231306,0.0512821,0.00945166,0.00945166,0,0,0,
-0.040276596,-0.005297872,105.1702128,11.28702128,3.572085106,20.56565957,1,0.978723,0.645,2.24E-08,0,0,,0,,,,
0.05276,0.3508,105.12,36.088,12.01446,19.2353,1,0.98,0.590143,0.0226274,0.0130639,0.0416667,0.00600064,0.00600064,0,0,0,
0.052659574,-0.004574468,105.0851064,12.08919149,4.57712766,28.64076596,1,0.978723,0.645,2.24E-08,0,0,,0,,,,
0.388219512,-0.0072,105,-10.48192683,2.543390244,8.325414634,0.87804878,0.97561,0.757875,0.0432062,0.0206565,0.025641,0.0261575,0.0261575,0,0,0,
0.016404255,-0.005744681,105,11.92612766,2.648148936,19.80919149,0,0.978723,0.645,2.24E-08,0,0,,0,,,,
0.06098,1.0441,104.98,32.3864,12.02108,17.8556,0.9,0.98,0.587531,0.0195737,0.0092376,0.0208333,0.0064401,0.0064401,0,0,0,
0.05662,1.62776,104.96,29.8362,9.02846,19.32666,1,0.98,0.59151,0.0331355,0.0208497,0.0416667,0.0163723,0.0163723,0,0,0,
0.006744681,-0.003425532,104.9574468,10.55723404,2.22687234,11.3796383,0,0.978723,0.645,2.24E-08,0,0,,0,,,,
0.014361702,-0.004191489,104.8510638,11.65144681,3.346765957,24.19019149,1,0.978723,0.645,2.24E-08,0,0,,0,,,,
0.005818182,-0.006795455,104.8409091,11.975,3.284568182,20.07075,1,0.977273,0.71,,0,0,,0,,,,
0.0685,3.73418,104.84,29.37852,9.63744,19.10456,1,0.98,0.603204,0.0307794,0.0130639,0.0416667,0.00609671,0.00609671,0,0,0,
0.07434,0.93704,104.84,30.422,5.64406,21.38822,0.44,0.98,0.587531,0.0195737,0.0092376,0.0208333,0.00642514,0.00642514,0,0,0,
0.04832,0.99118,104.8,34.51648,7.86442,20.80622,1,0.98,0.587531,0.0195737,0.0092376,0.0208333,0.00641603,0.00641603,0,0,0,
0.06794,0.911,104.8,34.8844,7.26136,20.12628,1,0.98,0.587531,0.0195737,0.0092376,0.0208333,0.00648878,0.00648878,0,0,0,
0.086959184,1.050954545,104.7952653,35.12277551,5.787591837,21.43386364,0.897959184,0.979592,0.625208,0.0986481,0.0387738,0.0425532,0.158367,0.158367,0,0,0,
0.0142,1.2052,104.78,35.2576,14.60062,21.872,1,0.98,0.587531,0.0195737,0.0092376,0.0208333,0.00640234,0.00640234,0,0,0,
0.116684211,0.270578947,104.7631579,36.20878947,5.526842105,7.915684211,0.131578947,0.973684,0.877027,0.117185,0.0567893,0.111111,0.175416,0.175416,0,0,0,
0.06662,0.22796,104.76,32.83708,7.26624,20.7256,1,0.98,0.587531,0.0195737,0.0092376,0.0208333,0.00630486,0.00630486,0,0,0,
0.09686,1.17544,104.72,36.91436,10.40588,23.2152,0.12,0.98,0.587531,0.0195737,0.0092376,0.0208333,0.00643144,0.00643144,0,0,0,
0.07578,0.93198,104.7,31.7064,5.45868,21.45354,0.12,0.98,0.594163,0.0394532,0.0186195,0.0208333,0.0259156,0.0259156,0,0,0,
0.08384,1.40512,104.68,35.89432,10.8283,20.3604,0.62,0.98,0.587531,0.0195737,0.0092376,0.0208333,0.00652595,0.00652595,0,0,0,
0.06634,0.8188,104.66,36.85352,12.24224,21.3058,1,0.98,0.587531,0.0195737,0.0092376,0.0208333,0.00632993,0.00632993,0,0,0,
0.126146341,3.997902439,104.6341463,21.97087805,8.587487805,3.594170732,1,0.97561,0.757875,0.0432062,0.0206565,0.025641,0.0267265,0.0267265,0,0,0,
0.455414634,-0.0062,104.6,-7.959829268,1.322780488,4.172560976,0.12195122,0.97561,0.779475,0.0530249,0.0212826,0.025641,0.0378067,0.0378067,0,0,0,
0.116957447,-0.002297872,104.5744681,11.79029787,2.763914894,25.57440426,0,0.978723,0.645,2.24E-08,0,0,,0,,,,
0.05496,3.57734,104.56,30.94472,8.97168,18.36118,0.9,0.98,0.587531,0.0195737,0.0092376,0.0208333,0.00648469,0.00648469,0,0,0,
0.4936,0.203028571,104.5428571,45.41005714,11.2248,19.56382857,1,0.971429,0.975088,0.139123,0.0673681,0.030303,0.237819,0.237819,0,0,0,
0.08886,1.239844444,104.49938,32.9832,10.89672,,0.88,0.98,0.613857,0.0984801,0.0464767,0.0208333,0.166601,0.166601,0,0,0,
0.184916667,,104.4713333,28.33322222,12.79908333,12.15354839,0,0.972222,0.949429,0.0297927,0.0193079,0.0882353,0.00493008,0.00493008,0,0,0,
0.1025,0.61828,104.46,32.65564,7.89616,21.70406,1,0.98,0.587531,0.0195737,0.0092376,0.0208333,0.00636654,0.00636654,0,0,0,
0.116808511,1.115893617,104.4255319,32.76302128,9.456510638,10.61834043,1,0.978723,0.652065,0.0204553,0.00968963,0.0222222,0.00659968,0.00659968,0,0,0,
0.06504,0.64588,104.36,31.99092,5.43028,19.5073,0.16,0.98,0.587531,0.0195737,0.0092376,0.0208333,0.00639469,0.00639469,0,0,0,
0.0965,0.884555556,104.33936,31.5628,11.22764,,0.9,0.98,0.62049,0.11836,0.0558586,0.0208333,0.239621,0.239621,0,0,0,
0.175,0.108578947,104.2894737,39.27352632,4.797394737,8.302105263,0.131578947,0.973684,0.857757,0.0884526,0.0443032,0.0555556,0.0964299,0.0964299,0,0,0,
0.0367,1.20044,104.24,37.41736,10.40686,23.9022,0.16,0.98,0.587531,0.0195737,0.0092376,0.0208333,0.0064805,0.0064805,0,0,0,
0.08338,1.8422,104.18,28.11288,10.25896,17.86814,1,0.98,0.587531,0.0195737,0.0092376,0.0208333,0.00644104,0.00644104,0,0,0,
0.083840909,0.493909091,104.1590909,30.53359091,6.235204545,16.33445455,0,0.977273,0.702442,0.0210829,0.0100297,0.0238095,0.00678376,0.00678376,0,0,0,
-0.04993617,-0.005574468,104.1276596,11.48629787,3.751489362,21.07344681,1,0.978723,0.645,2.24E-08,0,0,,0,,,,
0.0886,0.26948,104.08,32.42908,5.81542,19.91224,1,0.98,0.587531,0.0195737,0.0092376,0.0208333,inf,inf,0,0,0,
-0.019868421,0.4155,104.0789474,42.48242105,5.879526316,10.75826316,0.631578947,0.973684,0.859486,0.1116,0.0536667,0.0277778,0.169013,0.169013,0,0,0,
0.049756098,-0.0044,104.0487805,27.83478049,18.79165854,13.85380488,1,0.97561,0.757875,0.0432062,0.0206565,0.025641,0.0266697,0.0266697,0,0,0,
0.453725,-0.0064,104,-7.7667,1.361525,4.2271,0.125,0.975,0.785359,0.0545288,0.0261176,0.0263158,0.0406694,0.0406694,0,0,0,
0.07926,0.77686,103.96,35.93648,10.74524,18.5538,0.72,0.98,0.587531,0.0195737,0.0092376,0.0208333,0.00646657,0.00646657,0,0,0,
0.10088,1.4385,103.86,37.23056,13.82204,23.8666,1,0.98,0.590184,0.0293816,0.0161671,0.0625,0.01296,0.01296,0,0,0,
0.0806,1.2105,103.86,39.626,11.17644,23.1868,1,0.98,0.583612,0.0127946,0.0092376,0.0208333,0.0010584,0.0010584,0,0,0,
0.107170213,3.665142857,103.8290426,31.96795745,6.342425532,20.10471429,0,0.978723,0.673043,0.0811917,0.0384604,0.0222222,0.107613,0.107613,0,0,0,
0.103153846,0.820076923,103.8205128,27.59666667,5.463717949,8.632076923,1,0.974359,0.813474,0.0664586,0.0318934,0.027027,0.0605069,0.0605069,0,0,0,
0.06204,0.78872,103.78,35.51404,11.01296,20.4588,0.96,0.98,0.594163,0.0394532,0.0186195,0.0208333,0.0263309,0.0263309,0,0,0,
0.043387755,2.24744898,103.7755102,31.20297959,8.684265306,19.3354898,1,0.979592,0.602333,0.0304892,0.0208745,0.106383,0.00398864,0.00398864,0,0,0,
0.06868,0.81662,103.76,26.42164,11.92448,14.9256,0.9,0.98,0.594163,0.0394532,0.0186195,0.0208333,0.0264072,0.0264072,0,0,0,
0.05638,1.06062,103.7,35.97348,12.03978,18.80534,1,0.98,0.588837,0.0211968,0.0130639,0.0416667,0.00617119,0.00617119,0,0,0,
0.034341463,-0.0066,103.6829268,27.76209756,19.96053659,11.38363415,1,0.97561,0.757875,0.0432062,0.0206565,0.025641,0.0266352,0.0266352,0,0,0,
0.06316,0.54764,103.66,33.4512,6.2868,21.51544,1,0.98,0.594163,0.0394532,0.0186195,0.0208333,0.0265456,0.0265456,0,0,0,
-0.002404255,-0.005489362,103.6595745,11.41068085,4.278957447,21.18155319,1,0.978723,0.645,2.24E-08,0,0,,0,,,,
0.430560976,-0.006,103.6,-7.889707317,1.201902439,3.869097561,0.12195122,0.97561,0.758675,0.0438046,0.0212826,0.025641,0.0264152,0.0264152,0,0,0,
0.08936,0.81178,103.58,33.11836,12.37312,18.40054,1,0.98,0.594163,0.0394532,0.0186195,0.0208333,0.0261185,0.0261185,0,0,0,
0.10584,0.78528,103.56,34.61836,11.83104,14.435,0.9,0.98,0.594163,0.0394532,0.0186195,0.0208333,0.0265267,0.0265267,0,0,0,
0.015085106,-0.004787234,103.5106383,12.18425532,3.409042553,20.10755319,1,0.978723,0.645,2.24E-08,0,0,,0,,,,
0.074341463,-0.0088,103.4146341,29.37956098,18.84921951,12.27443902,1,0.97561,0.757875,0.0432062,0.0206565,0.025641,0.0265101,0.0265101,0,0,0,
0.163833333,0.373666667,103.3888889,40.19877778,7.838527778,10.00002778,1,0.972222,0.910714,0.112738,0.0565046,0.0588235,0.154045,0.154045,0,0,0,
0.060170213,0.717744681,103.3617021,35.96170213,12.17359574,18.10208511,1,0.978723,0.63387,0.0245263,0.0134924,0.0444444,0.0024116,0.0024116,0,0,0,
0.030531915,-0.005680851,103.3617021,11.44217021,3.171765957,27.15655319,0.574468085,0.978723,0.645,2.24E-08,0,0,,0,,,,
0.03266,0.3707,103.36,36.48344,12.57494,20.26354,1,0.98,0.587531,0.0195737,0.0092376,0.0208333,0.00642171,0.00642171,0,0,0,
0.05444,0.89776,103.32,43.19744,12.44574,21.0294,1,0.98,0.587531,0.0195737,0.0092376,0.0208333,0.00639299,0.00639299,0,0,0,
-0.002512195,1.466609756,103.3170732,30.75331707,9.106585366,15.92734146,0.87804878,0.97561,0.766,0.0214357,0.0102482,0.025641,0.00667487,0.00667487,0,0,0,
0.41625,0.382888889,103.2777778,38.99011111,2.315472222,14.88972222,0,0.972222,0.901429,0.110215,0.0586625,0.117647,0.145436,0.145436,0,0,0,
0.07728,0.852,103.26,41.68712,20.75518,19.2252,1,0.98,0.587531,0.0195737,0.0092376,0.0208333,0.00645091,0.00645091,0,0,0,
0.08354,0.80938,103.26,26.8094,11.38316,25.5172,1,0.98,0.587531,0.0195737,0.0092376,0.0208333,0.00640713,0.00640713,0,0,0,
0.05832,0.80292,103.24,40.34532,13.60856,20.6938,1,0.98,0.594163,0.0394532,0.0186195,0.0208333,0.0261056,0.0261056,0,0,0,
0.01532,0.54916,103.24,38.2356,11.10894,19.9176,0.62,0.98,0.587531,0.0195737,0.0092376,0.0208333,0.00641962,0.00641962,0,0,0,
0.425425,-0.0062,103.2,-10.864025,1.593125,5.200175,0.875,0.975,0.785359,0.0545288,0.0261176,0.0263158,0.040653,0.040653,0,0,0,
0.389219512,-0.002,103.2,-10.9567561,1.410731707,4.577682927,0.12195122,0.97561,0.755475,0.0431307,0.0163558,0.025641,0.0251706,0.0251706,0,0,0,
0.0711,0.8659,103.18,31.07068,11.45394,14.9696,0.84,0.98,0.587531,0.0195737,0.0092376,0.0208333,0.00632584,0.00632584,0,0,0,
0.592833333,0.285638889,103.1666667,46.28627778,7.487944444,17.67147222,1,0.972222,0.921857,0.114677,0.055394,0.0294118,0.165904,0.165904,0,0,0,
0.09496,1.1328,103.04,36.3374,11.1679,21.7022,0.9,0.98,0.592837,0.0364562,0.0228633,0.0625,0.0210736,0.0210736,0,0,0,
0.09106,0.85698,102.94,39.64972,14.0879,20.7804,1,0.98,0.594163,0.0394532,0.0186195,0.0208333,0.0262237,0.0262237,0,0,0,
0.064659574,2.082723404,102.9361702,26.80842553,8.171702128,21.24146809,0.723404255,0.978723,0.645,2.24E-08,0,0,,,0,0,0,
0.135634146,0.451902439,102.9268293,25.70068293,6.000243902,9.136682927,1,0.97561,0.757875,0.0432062,0.0206565,0.025641,0.0269093,0.0269093,0,0,0,
0.090319149,1.49787234,102.8723404,27.71374468,8.519978723,18.73585106,1,0.978723,0.645,2.24E-08,0,0,,,0,0,0,
0.0762,0.2638,102.84,31.58232,5.99668,19.88578,1,0.98,0.587531,0.0195737,0.0092376,0.0208333,0.00636098,0.00636098,0,0,0,
0.06472,0.15624,102.82,32.18736,5.66418,20.2264,0.7,0.98,0.594163,0.0394532,0.0186195,0.0208333,0.0261195,0.0261195,0,0,0,
0.35195122,-0.0034,102.8,-9.987780488,1.448073171,5.193390244,0,0.97561,0.757875,0.0432062,0.0206565,0.025641,0.02558,0.02558,0,0,0,
0.116846154,,102.7683333,29.32461538,15.09830769,12.84511765,0,0.974359,0.839,3.46E-08,0,0,,,0,0,0,
0.052840909,3.617772727,102.7272727,24.95204545,3.482022727,6.232295455,0.181818182,0.977273,0.709884,0.0543718,0.0222202,0.047619,0.0376414,0.0376414,0,0,0,
0.178775,-0.0048,102.716075,11.7409,3.7944,22.0576,0.875,0.975,0.775795,0.0583894,0.0297096,0.131579,0.0336916,0.0278101,0.0058815,0,0,
0.161210526,0.304605263,102.6842105,46.17563158,6.671947368,10.12128947,1,0.973684,0.868135,0.0894185,0.043,0.0277778,0.106713,0.106713,0,0,0,
0.02548,1.04124,102.68,38.55212,17.85322,19.152,1,0.98,0.587531,0.0195737,0.0092376,0.0208333,0.00660973,0.00660973,0,0,0,
0.0762,0.49734,102.64,30.49608,4.70284,20.50426,0,0.98,0.594163,0.0394532,0.0186195,0.0208333,0.0259873,0.0259873,0,0,0,
0.07706,1.10416,102.6,38.56076,11.63832,20.3418,0.9,0.98,0.587531,0.0195737,0.0092376,0.0208333,0.00648671,0.00648671,0,0,0,
0.465219512,-0.0068,102.6,-10.16390244,1.526243902,4.665902439,0.12195122,0.97561,0.757875,0.0432062,0.0206565,0.025641,0.0261606,0.0261606,0,0,0,
0.160439024,0.741097561,102.5609756,31.12365854,6.242585366,8.682609756,0.12195122,0.97561,0.757875,0.0432062,0.0206565,0.025641,0.0264238,0.0264238,0,0,0,
0.09368,0.77556,102.5,29.69056,11.58744,18.17906,0.9,0.98,0.599388,0.0415887,0.0131664,0.0416667,0.0246524,0.0246524,0,0,0,
0.0812,3.100866667,102.43936,32.59668,6.12874,21.33562222,0.9,0.98,0.613857,0.0984801,0.0464767,0.0208333,0.16424,0.16424,0,0,0,
0.199944444,0.143027778,102.3611111,43.506,4.614027778,4.892861111,0,0.972222,0.931143,0.0915992,0.0442466,0.0294118,0.107128,0.107128,0,0,0,
0.0973,1.15976,102.36,32.34092,10.8133,22.2296,0.76,0.98,0.592755,0.0250387,0.0092376,0.0208333,0.00609345,0.00609345,0,0,0,
-0.016512195,2.752756098,102.3414634,23.724,6.374512195,10.36763415,1,0.97561,0.76275,0.0322282,0.0253645,0.0769231,0.0127273,0.0127273,0,0,0,
0.05384,0.71184,102.32,34.94412,12.35262,18.83194,1,0.98,0.587531,0.0195737,0.0092376,0.0208333,0.00644148,0.00644148,0,0,0,
0.036657895,0.267342105,102.3157895,41.41294737,8.736552632,11.54139474,1,0.973684,0.873405,0.0768239,0.0443437,0.0555556,inf,inf,0,0,0,
0.442170732,-0.0046,102.2,-6.186,1.295609756,3.461463415,0,0.97561,0.757875,0.0432062,0.0206565,0.025641,0.0259315,0.0259315,0,0,0,
0.0654,1.13836,102.16,31.65824,11.5022,22.9646,1,0.98,0.587531,0.0195737,0.0092376,0.0208333,0.00647777,0.00647777,0,0,0,
0.08502,0.82178,102.12,31.83332,5.29592,19.9826,0.02,0.98,0.594163,0.0394532,0.0186195,0.0208333,0.0262131,0.0262131,0,0,0,
0.068953488,3.019953488,102.1162791,31.55567442,11.22265116,13.72288372,0.88372093,0.976744,0.719143,0.0226668,0.0141352,0.0487805,0.0015203,0.0015203,0,0,0,
-0.017595745,-0.004808511,102.106383,11.93680851,2.674382979,18.80004255,0,0.978723,0.645,2.24E-08,0,0,,0,,,,
0.07022,1.25082,102.06,35.68664,11.47364,18.42222,1,0.98,0.587531,0.0195737,0.0092376,0.0208333,0.00635106,0.00635106,0,0,0,
0.06052,0.92136,102,43.72832,12.4622,26.66424,1,0.98,0.587531,0.0195737,0.0092376,0.0208333,0.00642783,0.00642783,0,0,0,
0.052595745,0.188510638,102,35.05429787,2.854893617,15.09457447,0.106382979,0.978723,0.645,2.24E-08,0,0,,,0,0,0,
0.002934783,-0.004456522,101.9782609,10.7506087,2.417108696,11.25106522,0,0.978261,0.647889,0.0135466,0.013858,0.0454545,0.000144089,0,9.19E-06,5.97E-05,7.52E-05,0.79371
0.04248,6.33042,101.96,35.69572,3.84406,23.04132,0.1,0.98,0.587531,0.0195737,0.0092376,0.0208333,0.0064471,0.0064471,0,0,0,
0.072,0.65708,101.94,36.20156,11.3591,18.57166,1,0.98,0.587531,0.0195737,0.0092376,0.0208333,0.00640923,0.00640923,0,0,0,
0.07192,0.2423,101.94,32.11584,5.44128,20.01496,0.1,0.98,0.587531,0.0195737,0.0092376,0.0208333,0.00646358,0.00646358,0,0,0,
0.11832,1.848022222,101.91936,30.30228,7.43074,20.60551111,0.7,0.98,0.613857,0.0984801,0.0464767,0.0208333,0.166052,0.166052,0,0,0,
0.05222,0.80042,101.9,42.95692,12.10698,21.0108,1,0.98,0.587531,0.0195737,0.0092376,0.0208333,0.00630323,0.00630323,0,0,0,
0.026723404,-0.005851064,101.893617,11.9592766,2.505319149,18.42789362,0,0.978723,0.645,2.24E-08,0,0,,0,,,,
-0.010090909,-0.005636364,101.8863636,11.12959091,4.421045455,23.94513636,1,0.977273,0.71,,0,0,,0,,,,
0.10334,2.073155556,101.8593,29.16444,6.97112,20.13982222,0.12,0.98,0.607327,0.0789064,0.0372391,0.0208333,0.105024,0.105024,0,0,0,
0.11654,0.26062,101.84,31.62356,5.1833,20.4522,0,0.98,0.594163,0.0394532,0.0186195,0.0208333,0.0259064,0.0259064,0,0,0,
0.445604651,-0.0034,101.8,-10.67027907,1.913418605,6.71427907,1,0.976744,0.706833,0.0491806,0.0261184,0.0243902,0.0316474,0.0316474,0,0,0,
0.007658537,3.905878049,101.7073171,30.362,14.80560976,12.8742439,0.87804878,0.97561,0.757875,0.0432062,0.0206565,0.025641,0.026814,0.026814,0,0,0,
-0.000733333,-0.003488889,101.6444444,11.6964,2.1072,17.15126667,0,0.977778,0.676023,0.0328418,0.0171688,0.0697674,0.00107075,0,0.000786398,0.000135487,0.000148865,0.910133
0.06798,0.74214,101.46,29.65536,5.88604,20.59026,0.94,0.98,0.587531,0.0195737,0.0092376,0.0208333,0.006425,0.006425,0,0,0,
0.07076,0.24948,101.46,31.05156,6.39164,19.41894,0.9,0.98,0.587531,0.0195737,0.0092376,0.0208333,0.00647485,0.00647485,0,0,0,
0.05122,0.83304,101.44,34.11216,11.71334,16.5326,0.9,0.98,0.594163,0.0394532,0.0186195,0.0208333,0.026256,0.026256,0,0,0,
0.06604,0.85216,101.4,44.68012,12.49628,20.9018,1,0.98,0.587531,0.0195737,0.0092376,0.0208333,0.00644509,0.00644509,0,0,0,
0.247125,0.77065,101.375,34.2564,6.076125,11.826125,1,0.975,0.780128,0.0524967,0.0251443,0.0263158,0.0383076,0.0383076,0,0,0,
0.07194,0.42872,100.98,34.66068,7.4894,20.35638,1,0.98,0.587531,0.0195737,0.0092376,0.0208333,0.0064109,0.0064109,0,0,0,
0.06912,0.76642,100.96,26.3986,12.01116,14.7752,0.9,0.98,0.594163,0.0394532,0.0186195,0.0208333,0.0258985,0.0258985,0,0,0,
0.056111111,-0.0064,100.9555556,28.79466667,21.01191111,13.94226667,0.888888889,0.977778,0.659773,0.0275545,0.0140183,0.0465116,0.00319498,0.00319498,0,0,0,
0.435611111,0.361861111,100.9444444,40.71255556,5.533583333,17.95727778,1,0.972222,0.921857,0.114677,0.055394,0.0294118,0.16832,0.16832,0,0,0,
0.07692,0.8317,100.9,41.16588,12.88284,20.063,1,0.98,0.587531,0.0195737,0.0092376,0.0208333,0.00642314,0.00642314,0,0,0,
0.177148936,0.176547619,100.8929574,36.05314894,5.655914894,21.45145238,0.893617021,0.978723,0.673043,0.0811917,0.0384604,0.0222222,0.105193,0.105193,0,0,0,
0.096183673,0.785409091,100.8768367,36.05787755,8.952163265,,0.224489796,0.979592,0.630542,0.0778217,0.0387738,0.0425532,0.0893724,0.0893724,0,0,0,
0.045170213,3.822212766,100.8723404,27.36812766,8.024106383,20.96434043,0.893617021,0.978723,0.652065,0.0204553,0.00968963,0.0222222,0.00676111,0.00676111,0,0,0,
0.167138889,,100.8602222,28.34866667,12.51047222,12.22106452,0,0.972222,0.962429,0.0184619,0.0111474,0.0294118,0.00248517,0.00248517,0,0,0,
0.083421053,0.251236842,100.8421053,42.89931579,5.958894737,9.743184211,0.868421053,0.973684,0.868135,0.0894185,0.043,0.0277778,0.106235,0.106235,0,0,0,
0.294461538,-0.0038,100.8371538,12.04384615,1.740102564,18.912,0.871794872,0.974359,0.813474,0.0664586,0.0318934,0.027027,0.0565852,0.0464467,0.0101385,0,0,
0.182342105,0.244368421,100.8157895,43.45868421,6.630578947,8.662131579,1,0.973684,0.868135,0.0894185,0.043,0.0277778,0.106159,0.106159,0,0,0,
0.562,0.2124,100.7714286,42.37885714,8.857942857,15.72671429,1,0.971429,0.986559,0.146058,0.0794925,0.0606061,0.255703,0.255703,0,0,0,
0.08632,1.279377778,100.6993,31.05156,11.9505,,0.9,0.98,0.613857,0.0984801,0.0464767,0.0208333,0.160813,0.160813,0,0,0,
0.155702703,0.235513514,100.5945946,42.40686486,4.632513514,6.231594595,0,0.972973,0.908694,0.11069,0.0449727,0.0571429,0.155894,0.155894,0,0,0,
0.123704545,0.526431818,100.5,29.41131818,6.007181818,16.14854545,0,0.977273,0.702442,0.0210829,0.0100297,0.0238095,0.00667494,0.00667494,0,0,0,
0.039659574,-0.005212766,100.4680851,11.83165957,3.746489362,21.0842766,1,0.978723,0.645,2.24E-08,0,0,,0,,,,
0.044659574,0.167489362,100.4042553,34.85982979,3.181680851,16.41834043,0.106382979,0.978723,0.638043,0.0201406,0.00954056,0.0222222,0.00641431,0.00641431,0,0,0,
0.034297872,2.966,100.3829787,29.57804255,9.830553191,18.76025532,0.893617021,0.978723,0.645,2.24E-08,0,0,,,0,0,0,
0.121463415,1.485292683,100.3658537,24.9704878,6.289,10.71378049,1,0.97561,0.757875,0.0432062,0.0206565,0.025641,0.0265258,0.0265258,0,0,0,
0.131210526,,100.3412895,30.80763158,12.97778947,8.063454545,0,0.973684,0.911784,0.0225279,0.0108333,0.0277778,0.00682262,0.00682262,0,0,0,
0.10002,1.119266667,100.33936,25.473,11.9585,,1,0.98,0.604673,0.0716951,0.0293946,0.0416667,0.0856967,0.0856967,0,0,0,
0.528236842,0.242552632,100.3157895,38.77526316,3.464605263,15.06310526,0.131578947,0.973684,0.868135,0.0894185,0.043,0.0277778,0.107632,0.107632,0,0,0,
0.0797,0.85038,100.28,29.64896,11.51658,17.68424,0.9,0.98,0.587531,0.0195737,0.0092376,0.0208333,0.00638703,0.00638703,0,0,0,
0.0848,0.56394,100.26,33.25724,5.93018,20.64624,0.9,0.98,0.587531,0.0195737,0.0092376,0.0208333,0.00647204,0.00647204,0,0,0,
0.06836,0.39442,100.24,32.39516,5.54908,19.57968,0.34,0.98,0.604551,0.0363571,0.0228044,0.0625,0.0115288,0.0115288,0,0,0,
0.08102,1.266088889,100.2393,30.84656,12.96418,,0.9,0.98,0.613857,0.0984801,0.0464767,0.0208333,0.164107,0.164107,0,0,0,
0.416690476,-0.003,100.2,-12.32866667,1.919619048,6.514404762,1,0.97619,0.745,0.0406608,0.0161501,0.025,0.0218567,0.0218567,0,0,0,
0.071150943,1.132132075,100.2,31.83150943,12.01564151,2.141716981,1,0.981132,0.545904,0.0593601,0.0202271,0.0392157,0.0555572,0.0555572,0,0,0,
0.08996,0.61976,100.18,35.61464,12.10508,18.71588,1,0.98,0.587531,0.0195737,0.0092376,0.0208333,0.00635427,0.00635427,0,0,0,
0.13348,0.42872,100.16,28.9444,9.5581,17.49204,1,0.98,0.586224,0.0177051,0.016,0.0625,0.00411594,0.00411594,0,0,0,
0.174972222,0.09725,100.1388889,43.42627778,4.153444444,4.431527778,0,0.972222,0.931143,0.0915992,0.0442466,0.0294118,0.106583,0.106583,0,0,0,
0.124589744,1.82874359,100.0769231,41.10928205,2.295871795,4.764846154,0.128205128,0.974359,0.818526,0.0706226,0.0335841,0.0540541,0.0634362,0.0634362,0,0,0,
0.349638889,0.491305556,100.0555556,38.05605556,2.41925,5.814888889,0.138888889,0.972222,0.912714,0.137399,0.06637,0.0294118,0.239053,0.239053,0,0,0,
0.1565,0.276315789,100.0526316,41.75947368,5.892526316,11.81544737,0.868421053,0.973684,0.845784,0.0621035,0.0338891,0.0555556,0.0422698,0.0422698,0,0,0,
0.501184211,0.304578947,100.0526316,41.10994737,1.443736842,14.79521053,0.131578947,0.973684,0.868135,0.0894185,0.043,0.0277778,0.106215,0.106215,0,0,0,
0.11544898,0.180755102,100.0204082,34.15885714,5.470714286,20.10165306,0.326530612,0.979592,0.601,0.0299787,0.00933536,0.0212766,0.00721071,0.00721071,0,0,0,
0.019957447,2.923553191,100,28.32025532,9.210765957,19.64682979,1,0.978723,0.63387,0.0245263,0.00954056,0.0222222,0.00240371,0.00240371,0,0,0,
0.11014,0.3521,100,32.29512,6.49558,19.83634,1,0.98,0.587531,0.0195737,0.0092376,0.0208333,0.00644793,0.00644793,0,0,0,
0.437878049,0.0014,100,-10.73229268,1.798853659,5.567073171,0.87804878,0.97561,0.757875,0.0432062,0.0206565,0.025641,0.02623,0.02623,0,0,0,
0.05168,1.21514,100,35.61988,11.0446,7.43026,0.8,0.98,0.587531,0.0195737,0.0092376,0.0208333,0.00652749,0.00652749,0,0,0,
0.09442,0.29434,99.94,31.31704,5.37698,19.30766,0.02,0.98,0.587531,0.0195737,0.0092376,0.0208333,0.00650842,0.00650842,0,0,0,
0.1117,1.283355556,99.93928,33.1628,11.6531,,0.9,0.98,0.607327,0.0789064,0.0372391,0.0208333,0.105439,0.105439,0,0,0,
0.074729167,1.277953488,99.93677083,34.91254167,11.3276875,,0.895833333,0.979167,0.630234,0.0786335,0.032944,0.0869565,0.0939797,0.0939797,0,0,0,
0.096921053,0.433289474,99.89473684,42.19089474,2.818105263,5.089026316,0,0.973684,0.880432,0.069891,0.0339419,0.0555556,0.062664,0.062664,0,0,0,
0.1005,1.099933333,99.85938,23.91216,10.7381,,0.9,0.98,0.62049,0.11836,0.0558586,0.0208333,0.233721,0.233721,0,0,0,
0.419609756,-0.0052,99.8,-11.09895122,2.528317073,6.746853659,0.87804878,0.97561,0.757875,0.0432062,0.0206565,0.025641,0.0261512,0.0261512,0,0,0,
0.08193617,0.157978723,99.78723404,32.65574468,5.112425532,20.10178723,0,0.978723,0.642217,0.0131958,0.0134924,0.0444444,0.000206819,0.000206819,0,0,0,
0.07958,1.2508,99.75934,29.57816,11.42408,,0.9,0.98,0.607327,0.0789064,0.0372391,0.0208333,0.105697,0.105697,0,0,0,
0.04528,0.89066,99.7,24.993,11.28222,15.7764,0.9,0.98,0.587531,0.0195737,0.0092376,0.0208333,0.00643049,0.00643049,0,0,0,
0.114510204,0.841673469,99.69387755,42.35097959,13.20930612,20.8138,1,0.979592,0.603667,0.0309326,0.0161693,0.0638298,0.00412698,0.00412698,0,0,0,
0.05984,3.44852,99.64,30.96192,11.0559,18.64016,1,0.98,0.603204,0.0307794,0.0130639,0.0416667,0.00711314,0.00711314,0,0,0,
0.107159091,1.873681818,99.61363636,32.21163636,11.24247727,13.36895455,0.886363636,0.977273,0.71,,0,0,,,0,0,0,
0.370195122,-0.0046,99.6,-11.73387805,2.706317073,8.19704878,0.87804878,0.97561,0.757875,0.0432062,0.0206565,0.025641,0.0260383,0.0260383,0,0,0,
0.416170732,-0.0006,99.6,-10.70139024,1.635219512,7.172390244,0.87804878,0.97561,0.757875,0.0432062,0.0206565,0.025641,0.0255313,0.0255313,0,0,0,
0.149,0.141722222,99.58333333,43.44511111,4.627694444,4.761277778,0,0.972222,0.931143,0.0915992,0.0442466,0.0294118,0.10666,0.10666,0,0,0,
0.499,0.223472222,99.55555556,37.92816667,2.434083333,16.49386111,0,0.972222,0.921857,0.114677,0.055394,0.0294118,0.167181,0.167181,0,0,0,
0.02964,0.77652,99.5,39.04928,10.63642,20.0114,0.46,0.98,0.599286,0.0292119,0.0130639,0.0416667,0.00652959,0.00652959,0,0,0,
0.081333333,1.073854167,99.45833333,32.962375,9.4769375,20.7402,0.104166667,0.979167,0.627404,0.0417813,0.0250777,0.0869565,0.0180829,0.0180829,0,0,0,
0.058234043,1.826744681,99.42553191,27.24493617,7.716170213,20.21906383,0.617021277,0.978723,0.652065,0.0204553,0.00968963,0.0222222,0.00661008,0.00661008,0,0,0,
0.07016,0.95268,99.42,29.9298,8.7287,19.0038,0.9,0.98,0.592837,0.0364562,0.0208497,0.0416667,0.0211611,0.0211611,0,0,0,
0.40665,-0.0004,99.4,-11.6294,1.769175,6.557075,1,0.975,0.785359,0.0545288,0.0261176,0.0263158,0.0406751,0.0406751,0,0,0,
0.42202381,-0.0106,99.4,-11.44861905,2.210809524,8.281,1,0.97619,0.730171,0.0321356,0.015337,0.025,0.0147311,0.0147311,0,0,0,
0.05104,0.84994,99.4,42.2286,12.67436,27.07004,1,0.98,0.587531,0.0195737,0.0092376,0.0208333,0.00642864,0.00642864,0,0,0,
0.300680851,1.545380952,99.38125532,29.17821277,6.348595745,18.87042857,0.021276596,0.978723,0.666087,0.0610511,0.0289198,0.0222222,0.0721115,0.0721115,0,0,0,
0.08046,1.18656,99.36,32.17852,11.908,18.26738,1,0.98,0.594163,0.0394532,0.0186195,0.0208333,0.0262109,0.0262109,0,0,0,
0.084375,0.888395833,99.27083333,30.05416667,6.4415625,16.34260417,0.125,0.979167,0.619128,0.0317474,0.0188726,0.0869565,0.00133933,0.00133933,0,0,0,
0.09462,0.17992,99.24,31.61712,6.3327,19.61642,0.9,0.98,0.594163,0.0394532,0.0186195,0.0208333,0.026218,0.026218,0,0,0,
0.0674,0.76578,99.24,27.56576,10.4577,23.1534,0.28,0.98,0.594163,0.0394532,0.0186195,0.0208333,0.0262396,0.0262396,0,0,0,
0.083095238,-0.0034,99.23809524,29.69419048,19.96042857,14.95278571,0.880952381,0.97619,0.749024,0.0316073,0.0175271,0.075,0.00614203,0.00614203,0,0,0,
0.10938,0.81576,99.2,26.78028,11.49028,27.24096,1,0.98,0.587531,0.0195737,0.0092376,0.0208333,0.00635658,0.00635658,0,0,0,
0.58416,3.304133333,99.15934,33.80084,5.36728,21.59777778,0.2,0.98,0.607327,0.0789064,0.0372391,0.0208333,0.101272,0.101272,0,0,0,
-0.0188,0.5256,99.14,42.31704,12.99638,21.7544,1,0.98,0.587531,0.0195737,0.0092376,0.0208333,0.00642725,0.00642725,0,0,0,
0.03673913,-0.007804348,99.02173913,11.22378261,3.983804348,22.08258696,1,0.978261,0.652222,0.0206584,0.013858,0.0454545,0.000406765,0,0.000103211,0.000223112,8.04E-05,2.77356
0.06302439,-0.0034,99,28.3255122,19.04087805,14.81290244,1,0.97561,0.757875,0.0432062,0.0206565,0.025641,0.0272931,0.0272931,0,0,0,
0.126723404,0.308489362,98.95744681,29.01838298,8.634212766,16.79593617,1,0.978723,0.626913,0.0291356,0.00954056,0.0222222,0.00507426,0.00507426,0,0,0,
0.036255319,-0.036297872,98.93617021,11.39991489,3.664361702,27.17946809,1,0.978723,0.645,2.24E-08,0,0,,0,,,,
0.092833333,1.390651163,98.9159375,31.87729167,10.808875,,0.6875,0.979167,0.649298,0.0716974,0.0391929,0.0434783,0.0744135,0.0744135,0,0,0,
0.425552632,-0.0318,98.91534211,11.83673684,1.491763158,27.697,0.131578947,0.973684,0.859486,0.1116,0.0536667,0.0277778,0.154759,0.119085,0.0356743,0,0,
0.07038,0.7713,98.88,35.71412,10.65882,18.9278,0.6,0.98,0.594163,0.0394532,0.0186195,0.0208333,0.0260417,0.0260417,0,0,0,
0.161421053,1.705947368,98.84210526,36.12763158,6.852710526,11.58921053,0.921052632,0.973684,0.868135,0.0894185,0.043,0.0277778,0.107193,0.107193,0,0,0,
0.046512195,,98.82834146,27.82702439,16.80214634,15.43186111,0.87804878,0.97561,0.782125,0.0217706,0.0104083,0.025641,0.00667562,0.00667562,0,0,0,
0.428756098,0.0674,98.8,-10.84387805,2.14704878,6.910780488,1,0.97561,0.757875,0.0432062,0.0206565,0.025641,0.0259258,0.0259258,0,0,0,
0.396585366,-0.0076,98.8,-9.396073171,1.65402439,6.063170732,0.87804878,0.97561,0.757875,0.0432062,0.0206565,0.025641,0.0261383,0.0261383,0,0,0,
0.491513514,-3.47E-19,98.8,-7.435297297,1.278864865,4.173945946,0.135135135,0.972973,0.903889,0.106442,0.0493353,0.0285714,0.14361,0.14361,0,0,0,
0.129595745,1.756446809,98.78723404,31.51102128,10.69344681,13.82591489,0.893617021,0.978723,0.650652,0.0185175,0.00968963,0.0222222,0.00441129,0.00441129,0,0,0,
0.010468085,0.159148936,98.78723404,33.28782979,4.702425532,20.48251064,0.106382979,0.978723,0.645,2.24E-08,0,0,,,0,0,0,
0.045894737,0.273763158,98.73684211,41.573,6.758052632,7.641394737,0.868421053,0.973684,0.876919,0.0668906,0.0321667,0.0277778,inf,inf,0,0,0,
-0.152121951,2.509487805,98.73170732,30.23126829,8.34302439,14.44285366,0.87804878,0.97561,0.766,0.0214357,0.0102482,0.025641,0.00677958,0.00677958,0,0,0,
0.012085106,0.151957447,98.72340426,32.77804255,4.650978723,20.49668085,0.106382979,0.978723,0.645,2.24E-08,0,0,,,0,0,0,
0.09792,0.21734,98.72,31.82456,5.90682,19.54168,1,0.98,0.587531,0.0195737,0.0092376,0.0208333,0.00639235,0.00639235,0,0,0,
0.548868421,0.342973684,98.71052632,41.38226316,1.588973684,15.44631579,0.131578947,0.973684,0.868135,0.0894185,0.043,0.0277778,0.10621,0.10621,0,0,0,
0.05092,0.78108,98.66,27.7852,10.64462,23.9168,0.46,0.98,0.587531,0.0195737,0.0092376,0.0208333,0.00639779,0.00639779,0,0,0,
0.0794,0.25994,98.66,32.1706,5.33346,20.19424,0.1,0.98,0.587531,0.0195737,0.0092376,0.0208333,0.00642359,0.00642359,0,0,0,
0.011842105,0.270078947,98.63157895,45.67542105,10.22560526,13.57465789,1,0.973684,0.868135,0.0894185,0.043,0.0277778,0.106504,0.106504,0,0,0,
0.08256,1.4835,98.62,27.5192,8.74764,18.47998,1,0.98,0.596673,0.0278069,0.0130639,0.0416667,0.00615137,0.00615137,0,0,0,
0.075265306,0.791061224,98.6122449,41.03685714,12.0447551,20.0432,1,0.979592,0.603667,0.0309326,0.00933536,0.0212766,0.00765027,0.00765027,0,0,0,
0.05976,1.13714,98.6,42.98956,15.89486,3.85372,0.88,0.98,0.600694,0.0420021,0.0207851,0.0416667,0.0241713,0.0241713,0,0,0,
0.11497561,0.822414634,98.6,43.11609756,7.301365854,17.59834146,0.12195122,0.97561,0.757875,0.0432062,0.0206565,0.025641,0.026427,0.026427,0,0,0,
0.053431818,2.088113636,98.59090909,32.29759091,12.45636364,12.83502273,1,0.977273,0.702442,0.0210829,0.0141842,0.047619,0.00104273,0.00104273,0,0,0,
0.09982,0.89176,98.58,25.35176,10.76284,16.423,0.84,0.98,0.594061,0.0260612,0.0130639,0.0416667,0.00589869,0.00589869,0,0,0,
0.07816,3.46762,98.54,27.46652,8.79634,18.78278,1,0.98,0.594163,0.0394532,0.0186195,0.0208333,0.0265273,0.0265273,0,0,0,
0.091617021,0.307702128,98.5106383,32.04370213,5.428702128,20.40268085,0.29787234,0.978723,0.652065,0.0204553,0.00968963,0.0222222,0.00680613,0.00680613,0,0,0,
0.503222222,0.2205,98.47222222,43.83038889,6.588083333,17.73511111,1,0.972222,0.921857,0.114677,0.055394,0.0294118,0.166906,0.166906,0,0,0,
0.0816,1.0776,98.46,32.87292,9.79198,20.1262,0,0.98,0.594163,0.0394532,0.0186195,0.0208333,0.0261912,0.0261912,0,0,0,
0.478775,-0.0068,98.4,-10.999375,1.71295,5.27645,0.875,0.975,0.793692,0.0325141,0.0155733,0.0263158,0.0144117,0.0144117,0,0,0,
0.056212766,0.814574468,98.4,28.28970213,9.828829787,28.62689362,0,0.978723,0.652065,0.0204553,0.00968963,0.0222222,0.00673095,0.00673095,0,0,0,
0.11332,2.1634,98.39934,29.9222,6.9907,20.09568889,0.04,0.98,0.608633,0.0832323,0.0383677,0.0416667,0.117564,0.117564,0,0,0,
0.02292,-0.00544,98.38,11.63792,3.46594,23.7947,1,0.98,0.591449,0.0239,0.0092376,0.0208333,0.000557191,0,0.000226,0.000285053,4.61E-05,6.17826
-0.023681818,-0.004545455,98.36363636,12.23190909,3.092386364,23.03288636,0.704545455,0.977273,0.697907,0.0255937,0.0100297,0.0238095,0.000658355,0,0.000302034,0.00029432,6.20E-05,4.74707
0.180527778,0.151861111,98.36111111,43.61361111,4.40025,4.704833333,0,0.972222,0.931143,0.0915992,0.0442466,0.0294118,0.106716,0.106716,0,0,0,
0.37408,1.175688889,98.2793,26.23964,11.3884,,1,0.98,0.607327,0.0789064,0.0372391,0.0208333,0.104916,0.104916,0,0,0,
0.042,1.338365385,98.2,38.855,11.71678846,2.195096154,1,0.980769,0.54149,0.0320508,0.00919239,0.02,0.00850789,0.00850789,0,0,0,
0.468575,0.0002,98.2,-7.873825,1.15565,3.24835,0,0.975,0.785359,0.0545288,0.0261176,0.0263158,0.0407514,0.0407514,0,0,0,
0.0851875,0.164604167,98.16666667,33.11120833,5.46775,19.86433333,0.395833333,0.979167,0.620596,0.0435744,0.0134496,0.0434783,0.0225737,0.0225737,0,0,0,
0.157444444,0.738472222,98.13888889,40.47755556,2.777333333,6.466638889,0,0.972222,0.921857,0.114677,0.055394,0.0294118,0.166804,0.166804,0,0,0,
0.077978723,0.478553191,98.10638298,35.65331915,12.59806383,18.62306383,1,0.978723,0.622739,0.0308188,0.00954056,0.0222222,0.00626065,0.00626065,0,0,0,
0.060777778,2.529911111,98.02222222,30.58862222,9.340888889,11.58277778,1,0.977778,0.68925,0.0389299,0.0261111,0.162791,0.00520695,0.00520695,0,0,0,
0.1455,1.325925926,98,34.44722222,11.06442593,2.187833333,0.944444444,0.981481,0.54534,0.0431304,0.0200317,0.0384615,0.0230595,0.0230595,0,0,0,
0.05238,0.5936,98,30.38272,11.0649,24.64038,0.82,0.98,0.587531,0.0195737,0.0092376,0.0208333,0.00664159,0.00664159,0,0,0,
0.10974,0.27528,97.98,32.01332,5.15722,19.8688,0,0.98,0.594163,0.0394532,0.0186195,0.0208333,0.0258879,0.0258879,0,0,0,
0.111102041,3.161409091,97.97889796,33.31563265,5.682081633,22.84245455,0.897959184,0.979592,0.634542,0.0970038,0.0478873,0.0425532,0.144218,0.144218,0,0,0,
0.509852941,0.246323529,97.97058824,40.097,8.369882353,15.66823529,1,0.970588,1.02852,0.164578,0.0799031,0.03125,0.325682,0.325682,0,0,0,
0.066,1.11008,97.96,36.83944,11.19046,23.4068,1,0.98,0.594163,0.0394532,0.0186195,0.0208333,0.0262182,0.0262182,0,0,0,
0.00902439,-0.0048,97.90243902,28.65668293,17.13617073,13.11514634,1,0.97561,0.7644,0.0231437,0.0144931,0.0512821,0.0062417,0.0062417,0,0,0,
-0.0016,-0.004711111,97.88888889,11.92346667,3.028511111,20.05544444,0.711111111,0.977778,0.681932,0.0325686,0.00991241,0.0232558,0.00111227,0,0.000818524,0.00020107,9.27E-05,2.16967
0.08812,0.45216,97.78,32.477,5.95794,20.72784,1,0.98,0.587531,0.0195737,0.0092376,0.0208333,0.00635707,0.00635707,0,0,0,
0.107808511,2.432255319,97.72340426,27.86689362,6.908574468,20.05225532,0.170212766,0.978723,0.645,2.24E-08,0,0,,,0,0,0,
0.085,0.263244898,97.71428571,31.50408163,5.624244898,19.43218367,0.387755102,0.979592,0.594333,0.0262665,0.0161693,0.0638298,0.00624394,0.00624394,0,0,0,
0.10395122,2.041658537,97.68292683,26.95697561,6.239414634,9.047170732,0.87804878,0.97561,0.757875,0.0432062,0.0206565,0.025641,0.0264551,0.0264551,0,0,0,
0.093617021,1.891234043,97.63829787,33.19931915,11.01810638,11.722,1,0.978723,0.652065,0.0204553,0.00968963,0.0222222,0.00679996,0.00679996,0,0,0,
0.153545455,2.752333333,97.61290909,33.90977273,7.442204545,14.41289744,0.636363636,0.977273,0.718837,0.0725245,0.0410543,0.047619,0.073675,0.073675,0,0,0,
0.086113636,0.832931818,97.6,43.77081818,9.740795455,16.29595455,0.136363636,0.977273,0.702442,0.0210829,0.0100297,0.0238095,0.00669029,0.00669029,0,0,0,
0.080893617,0.171404255,97.55319149,32.90740426,4.879978723,20.12946809,0,0.978723,0.645,2.24E-08,0,0,,,0,0,0,
0.11592,0.9215,97.52,44.70592,11.1247,19.3834,0.88,0.98,0.587531,0.0195737,0.0092376,0.0208333,0.00644307,0.00644307,0,0,0,
0.10582,1.423044444,97.4993,29.91656,6.79216,19.03393333,0,0.98,0.609939,0.0790539,0.0383677,0.0416667,0.101579,0.101579,0,0,0,
0.05392,1.19884,97.42,31.59216,10.96498,21.5294,0.82,0.98,0.587531,0.0195737,0.0092376,0.0208333,0.00643126,0.00643126,0,0,0,
0.367571429,-0.0032,97.4,-10.39866667,1.55197619,5.873428571,0.142857143,0.97619,0.738098,0.0106014,0.00505964,0,0.00161561,0.00161561,0,0,0,
0.0135,-0.004854167,97.375,12.156375,3.1015625,22.434125,1,0.979167,0.609596,0.0321624,0.00943629,0.0217391,0.00108591,0,0.000800498,0.000227216,5.82E-05,3.90446
0.102808511,1.389170213,97.34042553,26.63744681,8.912893617,18.01480851,0.893617021,0.978723,0.645,2.24E-08,0,0,,,0,0,0,
0.13595122,2.463292683,97.29268293,32.07068293,10.47404878,13.44536585,0.87804878,0.97561,0.7612,0.0259261,0.0144931,0.0512821,0.00577091,0.00577091,0,0,0,
0.13593617,0.171666667,97.27587234,34.7546383,5.694042553,21.59435714,0.893617021,0.978723,0.671652,0.0822247,0.039626,0.0444444,0.106385,0.106385,0,0,0,
0.06904,1.299777778,97.23936,33.76004,10.94896,,0.9,0.98,0.607327,0.0789064,0.0372391,0.0208333,0.106262,0.106262,0,0,0,
0.077354167,0.8915,97.20833333,34.91216667,11.32460417,15.9158,0.895833333,0.979167,0.616511,0.0441031,0.0134496,0.0434783,0.0233324,0.0233324,0,0,0,
0.342170732,-0.005,97.2,-10.81226829,3.381756098,10.08153659,1,0.97561,0.766,0.0214357,0.0102482,0.025641,0.00666029,0.00666029,0,0,0,
-0.06128,0.49086,97.2,40.75524,13.06542,26.40096,1,0.98,0.587531,0.0195737,0.0092376,0.0208333,0.00652362,0.00652362,0,0,0,
0.03384,1.34676,97.2,39.01288,11.01374,2.5654,0.76,0.98,0.587531,0.0195737,0.0092376,0.0208333,0.00639172,0.00639172,0,0,0,
0.570638889,0.225194444,97.19444444,38.45194444,2.670138889,15.28097222,0,0.972222,0.921857,0.114677,0.055394,0.0294118,0.16654,0.16654,0,0,0,
0.06716,1.43062,97.18,32.0542,5.67462,20.18072,0.56,0.98,0.594163,0.0394532,0.0186195,0.0208333,0.0266804,0.0266804,0,0,0,
0.077,1.2054,97.1394,33.80336,10.87394,,0.9,0.98,0.613857,0.0984801,0.0464767,0.0208333,0.162712,0.162712,0,0,0,
0.151195122,1.90797561,97.12195122,28.33219512,5.521341463,8.587829268,1,0.97561,0.766,0.0214357,0.0102482,0.025641,0.00687002,0.00687002,0,0,0,
0.077021277,0.249851064,97.08510638,31.29051064,5.498021277,19.5037234,0.106382979,0.978723,0.639435,0.0182326,0.0165247,0.0666667,0.000774804,0.000774804,0,0,0,
0.077,0.29872,97.04,33.45268,5.64132,19.86092,0.56,0.98,0.587531,0.0195737,0.0092376,0.0208333,0.00645911,0.00645911,0,0,0,
0.10148,1.237866667,97.03932,33.68884,11.28326,,0.9,0.98,0.613857,0.0984801,0.0464767,0.0208333,0.162573,0.162573,0,0,0,
0.10794,1.202555556,97.0193,35.12868,10.91292,,0.9,0.98,0.613857,0.0984801,0.0464767,0.0208333,0.163831,0.163831,0,0,0,
0.284804878,-0.0006,97,-10.10714634,2.397463415,7.335146341,1,0.97561,0.757875,0.0432062,0.0206565,0.025641,0.0264714,0.0264714,0,0,0,
0.066479167,0.805416667,97,27.81954167,10.05264583,21.7558,0.041666667,0.979167,0.619234,0.0437946,0.0134496,0.0434783,0.0225741,0.0225741,0,0,0,
0.025804878,-0.0048,96.95121951,31.31780488,19.58117073,11.62185366,1,0.97561,0.757875,0.0432062,0.0206565,0.025641,0.0272064,0.0272064,0,0,0,
0.0806,1.4088,96.94,38.28696,10.34194,20.2128,0.16,0.98,0.587531,0.0195737,0.0092376,0.0208333,0.00642143,0.00642143,0,0,0,
0.176736842,0.255921053,96.92105263,44.09252632,5.291131579,9.7085,0.921052632,0.973684,0.859486,0.088701,0.0340474,0.0555556,0.100841,0.100841,0,0,0,
-0.00302439,-0.0048,96.90243902,28.54809756,21.48197561,15.21173171,0.87804878,0.97561,0.766,0.0214357,0.0102482,0.025641,0.00648773,0.00648773,0,0,0,
0.096276596,0.943808511,96.82978723,26.14119149,10.51417021,17.1092,0.468085106,0.978723,0.639435,0.0182326,0.0134924,0.0444444,0.000727942,0.000727942,0,0,0,
0.05904,1.06268,96.82,30.43328,8.22132,18.45676,1,0.98,0.587531,0.0195737,0.0092376,0.0208333,0.0063041,0.0063041,0,0,0,
0.1039,0.25492,96.82,31.00104,6.064,19.01636,0.9,0.98,0.587531,0.0195737,0.0092376,0.0208333,0.00650838,0.00650838,0,0,0,
0.024439024,-0.012,96.80487805,29.63497561,20.32734146,13.21770732,1,0.97561,0.756275,0.0437751,0.0252338,0.0769231,0.0247611,0.0247611,0,0,0,
0.117085106,0.443659574,96.78723404,30.49310638,6.70187234,15.17025532,0.021276596,0.978723,0.645,2.24E-08,0,0,,,0,0,0,
0.173785714,1.338357143,96.76190476,32.07261905,7.161452381,12.6005,0.880952381,0.97619,0.752146,0.0307259,0.0175271,0.075,0.0039999,0.0039999,0,0,0,
0.071625,0.3413125,96.72916667,32.586625,4.629833333,21.21789583,0.104166667,0.979167,0.619128,0.0317474,0.0133449,0.0434783,0.00683695,0.00683695,0,0,0,
0.291789474,-0.0008,96.72826316,11.995,1.809105263,19.4986,0.868421053,0.973684,0.847378,0.0862011,0.0340474,0.0555556,0.0887189,0.0745089,0.01421,0,0,
0.121387755,0.249653061,96.67346939,31.7622449,5.453122449,19.84481633,0.102040816,0.979592,0.615667,0.0322262,0.0132022,0.0425532,0.00772695,0.00772695,0,0,0,
0.140268293,0.06895122,96.65853659,33.91453659,9.385439024,8.970121951,0.268292683,0.97561,0.757875,0.0432062,0.0206565,0.025641,0.026331,0.026331,0,0,0,
0.14724,2.745333333,96.61928,32.26824,5.86776,22.76588889,0.9,0.98,0.613857,0.0984801,0.0464767,0.0208333,0.163809,0.163809,0,0,0,
0.439325,-0.0108,96.6,-7.83145,1.56975,4.62825,0.125,0.975,0.777154,0.0762049,0.0364998,0.0263158,0.079111,0.079111,0,0,0,
0.055340426,3.909382979,96.5106383,32.54965957,11.89782979,24.28906383,1,0.978723,0.645,2.24E-08,0,0,,,0,0,0,
0.10212766,0.171957447,96.4893617,34.96842553,2.972170213,15.58493617,0.106382979,0.978723,0.645,2.24E-08,0,0,,,0,0,0,
0.10088,1.16888,96.48,33.13396,9.93618,19.2126,0,0.98,0.587531,0.0195737,0.0092376,0.0208333,0.00642853,0.00642853,0,0,0,
0.002431818,-0.003840909,96.47727273,11.17686364,3.283795455,20.21445455,1,0.977273,0.682791,0.032446,0.0100297,0.0238095,0.00108472,0,0.000809988,0.000193053,8.17E-05,2.3635
0.144545455,0.657477273,96.47727273,33.64777273,8.570772727,11.84156818,0.886363636,0.977273,0.702442,0.0210829,0.0100297,0.0238095,0.00672253,0.00672253,0,0,0,
0.067595745,0.170914894,96.44680851,33.10714894,4.987595745,20.18825532,0,0.978723,0.63387,0.0245263,0.0233695,0.133333,0.000830787,0.000830787,0,0,0,
0.412675676,-0.0078,96.4,-7.454486486,1.224945946,3.942,0.135135135,0.972973,0.892056,0.10102,0.0493165,0.0285714,0.129578,0.129578,0,0,0,
0.07312,2.54744,96.38,31.61812,5.21392,19.41258,0.4,0.98,0.586755,0.0437762,0.0336916,0.0833333,0.00126077,0.00126077,0,0,0,
0.152078947,0.261,96.36842105,40.28126316,5.981184211,6.128921053,0.868421053,0.973684,0.868135,0.0894185,0.043,0.0277778,0.105756,0.105756,0,0,0,
0.10246,0.84406,96.36,37.3942,13.5967,19.6236,1,0.98,0.59151,0.0331355,0.0131664,0.0416667,0.0167512,0.0167512,0,0,0,
0.028285714,-0.006,96.35714286,29.43819048,19.57497619,12.46790476,1,0.97619,0.753585,0.0442736,0.0144231,0.05,0.0258212,0.0258212,0,0,0,
0.072638298,2.171148936,96.34042553,27.80123404,9.435255319,18.97878723,1,0.978723,0.642217,0.0131958,0.0134924,0.0444444,0.000207054,0.000207054,0,0,0,
0.010489362,-0.005978723,96.34042553,11.59621277,2.598914894,19.82734043,0,0.978723,0.645,2.24E-08,0,0,,0,,,,
-0.010042553,-0.005106383,96.31914894,12.01978723,2.910829787,21.68085106,0.212765957,0.978723,0.645,2.24E-08,0,0,,0,,,,
0.138025641,0.20974359,96.30769231,32.93748718,11.391,7.91,0.871794872,0.974359,0.813474,0.0664586,0.0318934,0.027027,0.058539,0.058539,0,0,0,
0.07924,1.78972,96.24,31.73944,5.27952,19.61198,0.08,0.98,0.594163,0.0394532,0.0186195,0.0208333,0.0259924,0.0259924,0,0,0,
0.0959,0.20916,96.22,33.6778,6.65958,19.79724,1,0.98,0.587531,0.0195737,0.0092376,0.0208333,0.00646059,0.00646059,0,0,0,
0.4172,-0.0026,96.2,-11.418375,2.065825,7.01515,1,0.975,0.793692,0.0325141,0.0155733,0.0263158,0.0145637,0.0145637,0,0,0,
0.43295,-0.0014,96.2,-11.639925,1.778625,5.47615,0.875,0.975,0.793692,0.0325141,0.0155733,0.0263158,0.0146591,0.0146591,0,0,0,
0.069704545,0.824159091,96.2,44.85759091,8.564818182,15.69322727,0,0.977273,0.702442,0.0210829,0.0100297,0.0238095,0.00670639,0.00670639,0,0,0,
0.049212766,0.659893617,96.19148936,35.68093617,12.3882766,19.44251064,1,0.978723,0.635261,0.0232421,0.0134924,0.0444444,0.00196752,0.00196752,0,0,0,
0.132851064,1.094914894,96.19148936,34.28276596,10.47346809,23.4644,0.404255319,0.978723,0.638043,0.0201406,0.00954056,0.0222222,0.00110084,0.00110084,0,0,0,
0.184342105,,96.07810526,29.68847368,8.994184211,6.63630303,0,0.973684,0.903,2.65E-08,0,0,,,0,0,0,
0.077382979,0.783404255,96.0212766,34.48838298,6.652574468,19.41810638,1,0.978723,0.622739,0.0308188,0.00954056,0.0222222,0.00627836,0.00627836,0,0,0,
0.34297619,-0.3148,96,-12.28961905,2.571142857,8.431452381,1,0.97619,0.754366,0.0425792,0.0216154,0.025,0.0242089,0.0242089,0,0,0,
-0.01446,0.91284,96,32.3534,12.26194,2.5047,1,0.98,0.587531,0.0195737,0.0092376,0.0208333,0.00641957,0.00641957,0,0,0,
0.05125,5.647275,96,37.3523,2.37605,4.852475,0.125,0.975,0.785795,0.0627452,0.0331904,0.0526316,0.0445782,0.0445782,0,0,0,
0.126085106,0.771340426,96,29.64621277,6.684234043,16.45082979,0.021276596,0.978723,0.652065,0.0204553,0.00968963,0.0222222,0.00667212,0.00667212,0,0,0,
0.073170213,0.238319149,95.9787234,32.13953191,5.29987234,19.58744681,0,0.978723,0.652065,0.0204553,0.00968963,0.0222222,0.00668327,0.00668327,0,0,0,
-0.0115,-0.004704545,95.90909091,11.89145455,2.800840909,21.55125,0.045454545,0.977273,0.708488,0.00991241,0.0141842,0.047619,5.32E-05,0,2.32E-06,1.67E-05,3.42E-05,0.48876
0.126979167,1.021186047,95.89508333,23.02275,10.97635417,,0.895833333,0.979167,0.647936,0.0939638,0.048405,0.0434783,0.13293,0.13293,0,0,0,
0.090702128,0.46493617,95.87234043,29.81876596,7.326595745,15.66021277,0.361702128,0.978723,0.645,2.24E-08,0,0,,,0,0,0,
0.073531915,2.362468085,95.85106383,28.08519149,10.61623404,17.87234043,0.893617021,0.978723,0.645,2.24E-08,0,0,,,0,0,0,
0.04614,0.78518,95.8,35.46468,11.0662,25.33958,1,0.98,0.594163,0.0394532,0.0186195,0.0208333,0.0266531,0.0266531,0,0,0,
0.480131579,-0.0026,95.8,-7.588526316,1.357578947,4.290684211,0.131578947,0.973684,0.868135,0.0894185,0.043,0.0277778,0.105264,0.105264,0,0,0,
0.078553191,0.207085106,95.72340426,34.59025532,2.754957447,13.54589362,0.106382979,0.978723,0.645,2.24E-08,0,0,,,0,0,0,
0.108042553,0.277340426,95.68085106,33.97455319,6.838680851,19.26748936,1,0.978723,0.645,2.24E-08,0,0,,,0,0,0,
0.090510638,3.337021277,95.65957447,29.74948936,10.46323404,11.74421277,0.893617021,0.978723,0.646413,0.00958373,0.00968963,0.0222222,4.75E-05,4.75E-05,0,0,0,
0.114681818,0.567045455,95.65909091,28.722,6.752590909,15.53886364,0,0.977273,0.702442,0.0210829,0.0100297,0.0238095,0.00664321,0.00664321,0,0,0,
0.214268293,3.245682927,95.63414634,22.05834146,9.62795122,11.538,1,0.97561,0.757875,0.0432062,0.0206565,0.025641,0.0269495,0.0269495,0,0,0,
0.104772727,0.826204545,95.61363636,44.17090909,7.421363636,5.4058,0,0.977273,0.71,,0,0,,,0,0,0,
0.086878049,-0.003,95.6097561,27.93653659,17.85746341,14.40326829,0.87804878,0.97561,0.766,0.0214357,0.0102482,0.025641,0.00654331,0.00654331,0,0,0,
0.16495122,0.181731707,95.6097561,32.31229268,13.36219512,10.36212195,0.87804878,0.97561,0.757875,0.0432062,0.0206565,0.025641,0.0270112,0.0270112,0,0,0,
0.447095238,-0.0064,95.6,-10.96266667,1.364785714,4.490952381,0.119047619,0.97619,0.734854,0.0357404,0.0161501,0.025,0.0169431,0.0169431,0,0,0,
0.084367347,0.800857143,95.6,27.77261224,10.12789796,28.959,0.102040816,0.979592,0.609104,0.0438441,0.0133057,0.0425532,0.024229,0.024229,0,0,0,
0.079468085,2.388297872,95.53191489,29.51012766,9.102595745,18.58421277,0.893617021,0.978723,0.645,2.24E-08,0,0,,,0,0,0,
0.048170213,0.632297872,95.5106383,35.87889362,13.34489362,20.51278723,1,0.978723,0.626913,0.0291356,0.00954056,0.0222222,0.00516866,0.00516866,0,0,0,
0.025595745,-0.005617021,95.5106383,11.20485106,2.944234043,22.46978723,0.510638298,0.978723,0.646413,0.00958373,0.00968963,0.0222222,5.00E-05,0,5.79E-06,1.30E-05,3.11E-05,0.418526
0.176605263,0.102605263,95.5,39.21889474,5.648552632,9.444315789,0.131578947,0.973684,0.868135,0.0894185,0.043,0.0277778,0.106214,0.106214,0,0,0,
0.475605263,0.256,95.47368421,41.09015789,4.082447368,17.63844737,0.631578947,0.973684,0.868135,0.0894185,0.043,0.0277778,0.106287,0.106287,0,0,0,
0.099092593,1.309203704,95.4,32.55588889,12.37561111,2.656740741,1,0.981481,0.52817,0.0380676,0.0178891,0.0192308,0.0258458,0.0258458,0,0,0,
0.266972222,2.427194444,95.38888889,39.73327778,6.699333333,11.06816667,0.833333333,0.972222,0.921857,0.114677,0.055394,0.0294118,0.168425,0.168425,0,0,0,
0.08328,2.4544,95.36,26.88636,9.77934,20.42006,1,0.98,0.590184,0.0293816,0.0208497,0.0416667,0.0126812,0.0126812,0,0,0,
0.068042553,1.454446809,95.31914894,28.90876596,7.212297872,20.19597872,0.446808511,0.978723,0.649239,0.0162264,0.0167829,0.0666667,0.00237754,0.00237754,0,0,0,
0.09872,1.199711111,95.29936,32.8082,11.07768,,0.9,0.98,0.613857,0.0984801,0.0464767,0.0208333,0.164347,0.164347,0,0,0,
0.017723404,-0.003085106,95.25531915,11.57221277,2.067638298,16.60193617,0,0.978723,0.645,2.24E-08,0,0,,0,,,,
0.08436,0.84014,95.24,29.94592,5.71086,20.95796,0.8,0.98,0.587531,0.0195737,0.0092376,0.0208333,0.0064387,0.0064387,0,0,0,
0.288842105,-0.0032,95.23071053,12.04389474,1.877921053,25.7204,1,0.973684,0.868135,0.0894185,0.043,0.0277778,0.100495,0.0827855,0.0177094,0,0,
0.11686,1.058911111,95.21938,23.77696,10.6863,,0.9,0.98,0.613857,0.0984801,0.0464767,0.0208333,0.16398,0.16398,0,0,0,
0.079531915,0.22287234,95.21276596,32.84348936,4.622042553,20.15338298,0,0.978723,0.645,2.24E-08,0,0,,,0,0,0,
0.06064,0.86726,95.2,37.8356,13.962,28.1605,1,0.98,0.594163,0.0394532,0.0186195,0.0208333,0.0262505,0.0262505,0,0,0,
0.425536585,-0.01,95.2,-12.11087805,2.085512195,6.613829268,0.87804878,0.97561,0.758675,0.0438046,0.0212826,0.025641,0.0265637,0.0265637,0,0,0,
0.419404762,-0.0074,95.2,-10.84978571,1.3625,4.625738095,0.119047619,0.97619,0.736415,0.036728,0.0210149,0.025,0.0173606,0.0173606,0,0,0,
0.472102564,,95.1902,-10.12476923,1.101358974,2.321235294,0,0.974359,0.847421,0.0219245,0.0105215,0.027027,0.00647487,0.00647487,0,0,0,
0.064297872,0.822531915,95.10638298,27.97931915,9.908595745,19.5704,0,0.978723,0.652065,0.0204553,0.00968963,0.0222222,0.00666341,0.00666341,0,0,0,
0.07552,1.57026,95.08,34.671,8.30144,21.94164,1,0.98,0.594163,0.0394532,0.0186195,0.0208333,0.0258986,0.0258986,0,0,0,
0.099227273,0.58675,95.04545455,33.31059091,7.354772727,18.30820455,0.522727273,0.977273,0.702442,0.0210829,0.0100297,0.0238095,0.0066619,0.0066619,0,0,0,
0.085416667,0.1570625,95.04166667,32.65079167,5.264229167,19.63208333,0,0.979167,0.613681,0.0323386,0.0211002,0.108696,0.00609458,0.00609458,0,0,0,
0.191228571,0.256942857,95.02857143,47.7536,3.101485714,5.342142857,0,0.971429,0.948882,0.104643,0.0592816,0.121212,0.125478,0.125478,0,0,0,
0.165052632,0.243342105,95,40.76957895,6.746973684,8.106578947,1,0.973684,0.876919,0.0668906,0.0321667,0.0277778,0.0585677,0.0585677,0,0,0,
0.084382979,0.830680851,95,27.4213617,9.974170213,20.611,0,0.978723,0.652065,0.0204553,0.00968963,0.0222222,0.00665382,0.00665382,0,0,0,
0.0883,0.18346,94.96,31.74576,5.92444,19.0327,0.9,0.98,0.587531,0.0195737,0.0092376,0.0208333,0.00643706,0.00643706,0,0,0,
0.0867,0.25948,94.84,32.2266,6.6769,19.79308,1,0.98,0.587531,0.0195737,0.0092376,0.0208333,0.00644736,0.00644736,0,0,0,
-0.059707317,3.382731707,94.80487805,30.21156098,14.77,15.63963415,0.87804878,0.97561,0.757875,0.0432062,0.0206565,0.025641,0.0261647,0.0261647,0,0,0,
0.129545455,-0.0022,94.77272727,30.17595455,17.61890909,16.85731818,0.659090909,0.977273,0.712977,0.0136373,0.00987541,0.0238095,0.000232675,0.000232675,0,0,0,
0.071893617,1.360702128,94.76595745,28.82255319,7.430382979,20.06889362,0.510638298,0.978723,0.645,2.24E-08,0,0,,,0,0,0,
0.210205128,0.448384615,94.74358974,33.67369231,1.676025641,6.523282051,0.128205128,0.974359,0.813474,0.0664586,0.0318934,0.027027,0.0600096,0.0600096,0,0,0,
0.183957447,0.171446809,94.72340426,34.95510638,3.082638298,16.148,0.106382979,0.978723,0.645,2.24E-08,0,0,,,0,0,0,
0.181307692,0.273282051,94.71794872,46.21271795,5.184538462,9.259333333,0.666666667,0.974359,0.820316,0.049575,0.033636,0.0540541,0.0319321,0.0319321,0,0,0,
0.016255319,-0.004744681,94.68085106,11.84557447,3.981531915,23.74491489,1,0.978723,0.640826,0.0159768,0.0190811,0.0888889,0.000157899,0,1.98E-05,6.40E-05,7.41E-05,0.863129
0.063531915,1.092361702,94.63829787,28.61391489,7.905553191,19.84991489,0.744680851,0.978723,0.652065,0.0204553,0.00968963,0.0222222,0.00671509,0.00671509,0,0,0,
0.07542,0.87532,94.6,46.3458,11.3148,25.07244,0.88,0.98,0.587531,0.0195737,0.0092376,0.0208333,0.00642652,0.00642652,0,0,0,
-0.05348,1.091666667,94.57924,32.58104,9.61894,,0.1,0.98,0.607327,0.0789064,0.0372391,0.0208333,0.106519,0.106519,0,0,0,
0.545861111,0.224388889,94.55555556,44.55561111,4.712638889,17.59258333,1,0.972222,0.925571,0.10615,0.0565046,0.0588235,0.140193,0.140193,0,0,0,
0.07514,0.895755556,94.53928,41.25312,10.61432,,0.36,0.98,0.607327,0.0789064,0.0372391,0.0208333,0.10425,0.10425,0,0,0,
0.535638889,0.217638889,94.5,42.39905556,4.898138889,17.25102778,1,0.972222,0.931143,0.0915992,0.0442466,0.0294118,0.106229,0.106229,0,0,0,
0.129469388,0.681142857,94.48979592,35.6422449,2.704959184,14.20814286,0.102040816,0.979592,0.613,0.0323386,0.0132022,0.0425532,0.00755352,0.00755352,0,0,0,
0.101282051,,94.48633333,28.14174359,14.81753846,12.04814706,0.128205128,0.974359,0.839,3.46E-08,0,0,,,0,0,0,
0.079638298,1.052553191,94.44680851,32.75353191,9.646191489,22.4496,0.106382979,0.978723,0.645,2.24E-08,0,0,,,0,0,0,
0.082255319,1.086255319,94.42553191,29.2473617,7.707446809,15.81874468,0.744680851,0.978723,0.645,2.24E-08,0,0,,,0,0,0,
0.042106383,-0.006106383,94.40425532,11.74838298,3.728234043,20.45895745,1,0.978723,0.645,2.24E-08,0,0,,0,,,,
0.05736,1.02796,94.4,32.37352,12.26564,1.7989,0.9,0.98,0.587531,0.0195737,0.0092376,0.0208333,0.00646902,0.00646902,0,0,0,
0.057255319,1.067531915,94.4,33.01319149,9.424212766,2.250212766,0.106382979,0.978723,0.640935,0.0343617,0.0253548,0.0888889,0.0108122,0.0108122,0,0,0,
0.072914894,0.807744681,94.38297872,28.21506383,9.809744681,18.8108,0,0.978723,0.652065,0.0204553,0.00968963,0.0222222,0.00665022,0.00665022,0,0,0,
0.065133333,2.59,94.35555556,30.35608889,9.1274,10.99106667,1,0.977778,0.680364,0.0429001,0.0279293,0.186047,0.00486863,0.00486863,0,0,0,
0.046863636,5.169977273,94.34090909,21.55145455,7.399136364,10.94359091,0.840909091,0.977273,0.705372,0.0327465,0.0263615,0.0952381,0.00785008,0.00785008,0,0,0,
0.016222222,-0.004688889,94.33333333,11.51111111,3.060866667,23.56513333,1,0.977778,0.683409,0.0323278,0.0171688,0.0697674,0.00105664,0,0.000306289,0.000615843,0.00013451,4.57842
0.109021277,1.56606383,94.31914894,28.56506383,10.91406383,18.18412766,0.893617021,0.978723,0.645109,0.0304063,0.0135982,0.0444444,0.00961806,0.00961806,0,0,0,
-0.022113636,-0.006409091,94.31818182,11.36359091,3.242431818,22.53879545,1,0.977273,0.71,,0,0,,0,,,,
0.10894,0.6885,94.3,34.48996,6.91548,19.98582,1,0.98,0.599286,0.0292119,0.0130639,0.0416667,0.00669673,0.00669673,0,0,0,
0.075309524,-0.005,94.28571429,29.72661905,19.82469048,16.11102381,0.880952381,0.97619,0.74122,0.0323879,0.0143108,0.05,0.0065513,0.0065513,0,0,0,
0.502394737,0.267394737,94.23684211,40.27110526,4.105973684,18.04197368,0.736842105,0.973684,0.868135,0.0894185,0.043,0.0277778,0.105559,0.105559,0,0,0,
0.027808511,0.196,94.23404255,35.15357447,2.965255319,15.46838298,0.106382979,0.978723,0.645,2.24E-08,0,0,,,0,0,0,
0.0855,0.831931818,94.22727273,44.41431818,8.686681818,12.968,0,0.977273,0.702442,0.0210829,0.0100297,0.0238095,0.00668989,0.00668989,0,0,0,
0.110306122,0.853612245,94.2,41.9042449,13.34608163,26.69963265,1,0.979592,0.603667,0.0309326,0.0161693,0.0638298,0.00341569,0.00341569,0,0,0,
0.070531915,0.874723404,94.17021277,29.98161702,8.215170213,18.70891489,1,0.978723,0.632478,0.0256695,0.00954056,0.0222222,0.00301632,0.00301632,0,0,0,
0.541388889,0.295361111,94.16666667,43.21566667,2.760055556,16.63072222,0.083333333,0.972222,0.921857,0.114677,0.055394,0.0294118,0.167211,0.167211,0,0,0,
0.009636364,-0.004522727,94.06818182,11.75968182,2.564272727,19.03995455,0,0.977273,0.71,,0,0,,0,,,,
0.077361702,0.774574468,94.06382979,27.362,9.889680851,18.068,0,0.978723,0.652065,0.0204553,0.00968963,0.0222222,0.00667632,0.00667632,0,0,0,
0.029658537,-0.0082,94.04878049,29.64365854,20.72636585,11.54109756,1,0.97561,0.757875,0.0432062,0.0206565,0.025641,0.0274341,0.0274341,0,0,0,
0.109105263,0.292421053,94,47.01394737,6.433842105,9.829473684,1,0.973684,0.868135,0.0894185,0.043,0.0277778,0.106642,0.106642,0,0,0,
0.05912963,0.855037037,94,29.8957037,12.51637037,8.450240741,0.907407407,0.981481,0.542887,0.0428753,0.0200317,0.0384615,inf,inf,0,0,0,
0.141210526,0.395631579,93.97368421,45.64668421,5.336131579,12.42218421,0.868421053,0.973684,0.868135,0.0894185,0.043,0.0277778,0.10724,0.10724,0,0,0,
0.084875,1.784069767,93.83264583,28.97341667,6.974208333,19.92786047,0.208333333,0.979167,0.646574,0.0944696,0.0391929,0.0434783,0.139008,0.139008,0,0,0,
0.217578947,-0.0024,93.80928947,11.86657895,1.390894737,23.0964,0.131578947,0.973684,0.868135,0.0894185,0.043,0.0277778,0.0994443,0.077013,0.0224313,0,0,
0.116292683,0.156926829,93.80487805,30.78809756,12.42095122,8.065536585,0.87804878,0.97561,0.774125,0.0567167,0.0231306,0.0512821,0.0390309,0.0390309,0,0,0,
0.06644,0.94004,93.8,39.29872,11.01112,25.27868,0.9,0.98,0.587531,0.0195737,0.0092376,0.0208333,0.00630311,0.00630311,0,0,0,
0.43704878,-0.0102,93.8,-11.86202439,2.606487805,8.271902439,0.87804878,0.97561,0.757875,0.0432062,0.0206565,0.025641,0.0259968,0.0259968,0,0,0,
0.07502,0.17808,93.8,31.76736,5.27618,19.54992,0,0.98,0.600694,0.0420021,0.0207851,0.0416667,0.0240963,0.0240963,0,0,0,
0.07493617,0.86987234,93.74468085,31.83834043,5.437446809,19.63510638,0.319148936,0.978723,0.632587,0.0398277,0.0135982,0.0444444,0.0172162,0.0172162,0,0,0,
0.09814,3.051133333,93.71942,31.76224,5.69246,22.85315556,0.9,0.98,0.613857,0.0984801,0.0464767,0.0208333,0.164432,0.164432,0,0,0,
0.121545455,0.563431818,93.70454545,32.96377273,7.959477273,17.72638636,0.886363636,0.977273,0.71,,0,0,,,0,0,0,
0.410166667,0.234166667,93.69444444,39.82638889,1.105,18.64522222,0.138888889,0.972222,0.931143,0.0915992,0.0442466,0.0294118,0.106365,0.106365,0,0,0,
0.114918367,1.033386364,93.69320408,24.96244898,11.57130612,,0.897959184,0.979592,0.621208,0.0990699,0.0387738,0.0425532,0.159419,0.159419,0,0,0,
0.139578947,0.276,93.68421053,46.91573684,6.333131579,10.03407895,1,0.973684,0.868135,0.0894185,0.043,0.0277778,0.107087,0.107087,0,0,0,
0.021851064,-0.005893617,93.65957447,11.61680851,3.799638298,21.15259574,1,0.978723,0.645,2.24E-08,0,0,,0,,,,
0.062465116,-0.0078,93.65116279,28.41465116,16.9225814,12.53262791,0.930232558,0.976744,0.72219,0.0254359,0.0141352,0.0487805,0.00241439,0.00241439,0,0,0,
0.039136364,-0.0056,93.63636364,28.97045455,20.25236364,13.02977273,1,0.977273,0.715837,0.0366852,0.0140755,0.047619,0.0128633,0.0128633,0,0,0,
0.081317073,3.134926829,93.6097561,26.5495122,5.63004878,8.613756098,0.87804878,0.97561,0.757875,0.0432062,0.0206565,0.025641,0.0271418,0.0271418,0,0,0,
0.416230769,-0.0062,93.6,-11.30587179,1.61574359,5.890179487,0.871794872,0.974359,0.811658,0.0533977,0.0243594,0.0540541,0.0341803,0.0341803,0,0,0,
0.287317073,-0.0048,93.6,-8.17702439,1.630829268,6.025292683,0.682926829,0.97561,0.757875,0.0432062,0.0206565,0.025641,0.0265647,0.0265647,0,0,0,
0.46135,-0.0056,93.6,-11.6771,1.5594,5.407675,0.175,0.975,0.785359,0.0545288,0.0261176,0.0263158,0.0405253,0.0405253,0,0,0,
0.106704545,0.833431818,93.6,44.70222727,8.887931818,15.6305,0,0.977273,0.702442,0.0210829,0.0100297,0.0238095,0.00668731,0.00668731,0,0,0,
0.072447368,0.558342105,93.57894737,47.68231579,5.735868421,7.152368421,0.789473684,0.973684,0.876919,0.0668906,0.0321667,0.0277778,0.0580614,0.0580614,0,0,0,
0.192552632,0.263210526,93.55263158,45.79247368,6.026552632,8.875078947,0.868421053,0.973684,0.868135,0.0894185,0.043,0.0277778,0.108242,0.108242,0,0,0,
0.114090909,1.916022727,93.5,31.84936364,10.11086364,12.90081818,0.886363636,0.977273,0.688837,0.0308189,0.0100297,0.0238095,0.00513794,0.00513794,0,0,0,
0.15412766,1.887170213,93.4893617,32.35714894,12.37357447,13.52682979,0.765957447,0.978723,0.645,2.24E-08,0,0,,,0,0,0,
0.260538462,0.430974359,93.48717949,33.86487179,1.762051282,6.630153846,0.128205128,0.974359,0.805053,0.0883831,0.0424149,0.027027,0.105317,0.105317,0,0,0,
0.061361702,0.469234043,93.46808511,30.2707234,6.489808511,18.17038298,0,0.978723,0.645,2.24E-08,0,0,,,0,0,0,
0.023595238,2.155880952,93.45238095,31.3267619,10.08028571,12.44247619,1,0.97619,0.737976,0.0456193,0.0203181,0.1,0.0212794,0.0212794,0,0,0,
0.003319149,-0.006255319,93.44680851,11.54314894,3.460702128,20.01819149,1,0.978723,0.645,2.24E-08,0,0,,0,,,,
0.102,1.17312766,93.44680851,27.05123404,7.283,20.11980851,0.255319149,0.978723,0.652065,0.0204553,0.00968963,0.0222222,0.0066484,0.0066484,0,0,0,
0.105,1.47016,93.44,37.80708,10.0738,20.315,0,0.98,0.594163,0.0394532,0.0186195,0.0208333,0.0262022,0.0262022,0,0,0,
0.070375,0.8555625,93.41666667,34.58433333,10.7916875,14.479,0.895833333,0.979167,0.630128,0.0407178,0.0212322,0.0434783,0.0170765,0.0170765,0,0,0,
0.060146341,0.390536585,93.41463415,31.11614634,12.03797561,10.25934146,1,0.97561,0.766,0.0214357,0.0102482,0.025641,0.00658565,0.00658565,0,0,0,
0.442585366,-0.0044,93.4,-9.217317073,1.974365854,6.432268293,1,0.97561,0.757875,0.0432062,0.0206565,0.025641,0.0261004,0.0261004,0,0,0,
0.422585366,0.002,93.4,-10.9445122,1.694317073,5.130926829,1,0.97561,0.761875,0.0459778,0.0272656,0.025641,0.0280174,0.0280174,0,0,0,
0.0753,0.8334,93.4,36.55512,11.10226,26.11856,0.98,0.98,0.587531,0.046152,0.0208497,0.0416667,0.0307272,0.0307272,0,0,0,
0.545916667,0.253611111,93.33333333,42.83261111,6.96475,17.08455556,1,0.972222,0.931143,0.0915992,0.0442466,0.0294118,0.107904,0.107904,0,0,0,
0.001390244,-0.002,93.31707317,29.67795122,19.30329268,11.03492683,1,0.97561,0.757875,0.0432062,0.0206565,0.025641,0.0271825,0.0271825,0,0,0,
0.094763158,0.256736842,93.28947368,43.24410526,6.048578947,9.940184211,0.868421053,0.973684,0.868135,0.0894185,0.043,0.0277778,0.104852,0.104852,0,0,0,
0.4986,0.256,93.25714286,42.50337143,5.679114286,16.93508571,1,0.971429,0.975088,0.139123,0.0673681,0.030303,0.237061,0.237061,0,0,0,
0.09712766,1.055914894,93.2,32.72782979,9.841659574,2.33793617,0.106382979,0.978723,0.645,2.24E-08,0,0,,,0,0,0,
0.078787234,0.159744681,93.19148936,32.85348936,4.740957447,19.8886383,0,0.978723,0.645,2.24E-08,0,0,,,0,0,0,
0.141447368,0.236078947,93.18421053,43.38131579,5.798394737,10.51089474,1,0.973684,0.876919,0.0668906,0.0321667,0.0277778,0.0600361,0.0600361,0,0,0,
0.486028571,0.220714286,93.17142857,45.53525714,9.099371429,12.80911429,1,0.971429,0.975088,0.139123,0.0673681,0.030303,0.239259,0.239259,0,0,0,
0.157222222,0.821055556,93.16666667,36.06827778,6.843638889,7.842,0.972222222,0.972222,0.921857,0.114677,0.055394,0.0294118,0.166791,0.166791,0,0,0,
0.14725,0.948795455,93.15909091,30.41795455,11.29618182,13.59493182,0.886363636,0.977273,0.682791,0.032446,0.0200594,0.0952381,0.00685707,0.00685707,0,0,0,
0.031638298,-0.005361702,93.14893617,11.71902128,2.031042553,15.98534043,0,0.978723,0.650652,0.0185175,0.00968963,0.0222222,0.000291758,0,9.19E-05,0.000141576,5.83E-05,2.42953
-0.008022222,-0.003955556,93.13333333,11.36546667,4.076666667,22.37091111,1,0.977778,0.6775,0.0328757,0.0171688,0.0697674,0.00104038,0,0.000609423,0.00030683,0.000124124,2.47196
0.152666667,0.260238095,93.0952381,32.7412381,14.71071429,12.17161905,1,0.97619,0.747463,0.0319219,0.0226274,0.125,0.00422301,0.00422301,0,0,0,
0.106282609,0.183434783,93.08695652,34.73843478,3.125695652,14.08345652,0,0.978261,0.675333,0.0327941,0.013858,0.0454545,0.00739284,0.00739284,0,0,0,
0.07025,0.196022727,93.04545455,35.33040909,4.688272727,18.07618182,0,0.977273,0.702442,0.0210829,0.0100297,0.0238095,0.00671754,0.00671754,0,0,0,
0.131319149,0.731547619,93.02048936,27.89144681,6.505340426,18.65907143,0,0.978723,0.656348,0.0684638,0.039626,0.0444444,0.0669798,0.0669798,0,0,0,
0.07724,1.17414,93.02,31.66416,10.98102,17.4052,1,0.98,0.594163,0.0394532,0.0186195,0.0208333,0.025841,0.025841,0,0,0,
0.448512195,-0.0048,93,-10.80397561,1.410634146,4.516317073,0.12195122,0.97561,0.757875,0.0432062,0.0206565,0.025641,0.0258731,0.0258731,0,0,0,
-0.015926829,5.25697561,92.97560976,35.00634146,10.24143902,12.42504878,1,0.97561,0.757875,0.0432062,0.0206565,0.025641,0.028033,0.028033,0,0,0,
0.02512766,2.549425532,92.93617021,27.58008511,8.252914894,21.53889362,0.765957447,0.978723,0.652065,0.0204553,0.00968963,0.0222222,0.00689302,0.00689302,0,0,0,
0.068382979,1.165042553,92.89361702,29.71740426,7.109851064,19.68357447,0.14893617,0.978723,0.652065,0.0204553,0.00968963,0.0222222,0.006664,0.006664,0,0,0,
0.427277778,0.258305556,92.83333333,40.77316667,2.560916667,16.51919444,0,0.972222,0.921857,0.114677,0.055394,0.0294118,0.166935,0.166935,0,0,0,
0.063891304,3.010956522,92.82608696,30.824,9.944913043,11.77823913,1,0.978261,0.649333,0.0163971,0.013858,0.0454545,0.000105133,0.000105133,0,0,0,
0.419268293,-0.0096,92.8,-10.84419512,2.136780488,7.801195122,1,0.97561,0.753075,0.0429176,0.0212826,0.025641,0.0239642,0.0239642,0,0,0,
0.435525,-0.003,92.8,-11.2597,1.68655,5.75445,1,0.975,0.785359,0.0545288,0.0261176,0.0263158,0.040725,0.040725,0,0,0,
0.08052,0.83058,92.8,42.88996,12.47586,20.5898,1,0.98,0.587531,0.0195737,0.0092376,0.0208333,0.00648444,0.00648444,0,0,0,
0.473512195,-0.004,92.8,-12.38173171,2.152121951,6.438121951,0.926829268,0.97561,0.766,0.0214357,0.0102482,0.025641,0.00643717,0.00643717,0,0,0,
0.307642857,-0.0072,92.8,-8.747238095,1.868261905,6.179404762,0.857142857,0.97619,0.732512,0.0340684,0.0221997,0.025,0.0153142,0.0153142,0,0,0,
0.47805,-0.0074,92.8,-7.55735,1.15085,2.7297,0,0.975,0.793692,0.0325141,0.0155733,0.0263158,0.0143498,0.0143498,0,0,0,
0.110148936,-0.0066,92.76595745,29.43893617,18.73959574,11.98385106,1,0.978723,0.652065,0.0204553,0.00968963,0.0222222,0.00659403,0.00659403,0,0,0,
0.42725,0.333722222,92.75,40.46483333,2.48475,15.48838889,0,0.972222,0.921857,0.114677,0.055394,0.0294118,0.166941,0.166941,0,0,0,
0.060617021,0.251787234,92.72340426,35.03582979,4.070957447,16.93453191,0,0.978723,0.652065,0.0204553,0.00968963,0.0222222,0.00660131,0.00660131,0,0,0,
0.108435897,1.757589744,92.69230769,32.24825641,5.029,9.556205128,0.923076923,0.974359,0.813474,0.0664586,0.0318934,0.027027,0.0601812,0.0601812,0,0,0,
0.081957447,0.177255319,92.68085106,34.83365957,3.067170213,13.80393617,0,0.978723,0.652065,0.0204553,0.00968963,0.0222222,0.00667305,0.00667305,0,0,0,
-0.006957447,-0.077425532,92.65957447,11.31080851,1.793829787,10.16234043,0,0.978723,0.650652,0.0185175,0.00968963,0.0222222,0.000292897,0,7.68E-05,0.000148707,6.74E-05,2.20564
0.285153846,-0.0054,92.65846154,12.18748718,1.444076923,20.5232,0,0.974359,0.837184,0.0569361,0.023674,0.0540541,0.0361858,0.0286113,0.00757451,0,0,
0.090723404,0.277361702,92.63829787,32.31753191,5.257,20.03834043,0,0.978723,0.650674,0.0229686,0.0166112,0.0666667,0.00697004,0.00697004,0,0,0,
0.127425532,1.046595238,92.61631915,23.06855319,11.10080851,,0.893617021,0.978723,0.667478,0.0851093,0.039626,0.0444444,0.112155,0.112155,0,0,0,
0.539842105,0.285078947,92.60526316,42.60878947,4.406078947,18.40871053,0.921052632,0.973684,0.876919,0.0668906,0.0321667,0.0277778,0.0591222,0.0591222,0,0,0,
0.134348837,0.208162791,92.60465116,32.09734884,11.91288372,12.01890698,0.88372093,0.976744,0.726762,0.02848,0.00999512,0.0243902,0.00427068,0.00427068,0,0,0,
0.405243902,-0.0038,92.6,-10.39660976,1.87495122,6.153512195,1,0.97561,0.757875,0.0432062,0.0206565,0.025641,0.026044,0.026044,0,0,0,
0.42427907,-0.006,92.6,-11.33881395,1.734255814,6.027581395,1,0.976744,0.722833,0.0319511,0.0133407,0.0243902,0.0127046,0.0127046,0,0,0,
0.076918367,0.787,92.6,39.39538776,10.64736735,25.51457143,0.530612245,0.979592,0.610333,0.0322262,0.0132022,0.0425532,0.00777358,0.00777358,0,0,0,
0.080680851,2.106297872,92.59574468,27.37753191,7.577319149,20.15017021,0.531914894,0.978723,0.652065,0.0204553,0.00968963,0.0222222,0.00664732,0.00664732,0,0,0,
0.145944444,2.73025,92.58333333,41.41772222,11.46713889,13.63469444,1,0.972222,0.907143,0.136327,0.0563364,0.0588235,0.228953,0.228953,0,0,0,
0.087957447,0.206893617,92.55319149,34.62489362,2.73787234,14.05380851,0.106382979,0.978723,0.652065,0.0204553,0.00968963,0.0222222,0.006635,0.006635,0,0,0,
0.551111111,0.281361111,92.52777778,43.15916667,3.095138889,20.90836111,0.138888889,0.972222,0.921857,0.114677,0.055394,0.0294118,0.167213,0.167213,0,0,0,
-0.022804348,-0.004565217,92.52173913,11.7273913,3.337826087,22.25747826,1,0.978261,0.666667,0.0309875,0.00979912,0.0227273,0.000955015,0,0.000673962,0.000221968,5.91E-05,3.7567
0.067146341,-0.0024,92.51219512,28.30317073,21.60997561,15.79282927,0.975609756,0.97561,0.749875,0.0646419,0.0309047,0.025641,0.0577009,0.0577009,0,0,0,
0.547857143,0.258685714,92.42857143,45.50177143,6.083428571,8.329057143,0.6,0.971429,0.975088,0.139123,0.0673681,0.030303,0.238934,0.238934,0,0,0,
0.11236,0.7979,92.4,40.60052,14.04678,27.55158,1,0.98,0.587531,0.0195737,0.0092376,0.0208333,0.00646548,0.00646548,0,0,0,
0.42195,-0.005,92.4,-7.8359,1.3635,4.091075,0.125,0.975,0.785359,0.0545288,0.0261176,0.0263158,0.0405099,0.0405099,0,0,0,
0.4209,-0.0064,92.4,-10.0129,1.544575,4.85405,0.125,0.975,0.785359,0.0545288,0.0261176,0.0263158,0.0406827,0.0406827,0,0,0,
0.036021277,-0.004489362,92.36170213,11.42025532,3.607723404,20.47789362,1,0.978723,0.645,2.24E-08,0,0,,0,,,,
0.076978723,0.189212766,92.36170213,34.63876596,2.849659574,13.33487234,0,0.978723,0.645,2.24E-08,0,0,,,0,0,0,
0.1343,-0.0038,92.35,34.2085,16.411025,9.168525,0.45,0.975,0.797462,0.0655217,0.023433,0.0526316,0.0530302,0.0530302,0,0,0,
0.478052632,0.229842105,92.34210526,40.91536842,4.921157895,15.47789474,1,0.973684,0.873405,0.0932572,0.0493539,0.166667,0.111594,0.111594,0,0,0,
0.186333333,1.340692308,92.33333333,31.59502564,4.027358974,7.102923077,0.128205128,0.974359,0.813474,0.0664586,0.0318934,0.027027,0.0592379,0.0592379,0,0,0,
0.046826087,0.18626087,92.32608696,34.87456522,4.579543478,17.21832609,0,0.978261,0.663778,0.0297939,0.0169726,0.0681818,0.00484899,0.00484899,0,0,0,
0.527416667,0.21625,92.30555556,43.12211111,6.240611111,16.61541667,1,0.972222,0.921857,0.114677,0.055394,0.0294118,0.166449,0.166449,0,0,0,
0.049522727,3.000568182,92.27272727,30.30609091,8.419409091,10.90952273,1,0.977273,0.679767,0.0328045,0.0141842,0.047619,0.00284779,0.00284779,0,0,0,
0.113522727,0.473704545,92.25,30.58095455,5.702227273,16.61965909,0,0.977273,0.702442,0.0210829,0.0100297,0.0238095,0.00666829,0.00666829,0,0,0,
0.140765957,1.81006383,92.21276596,32.00323404,10.391,13.06119149,0.893617021,0.978723,0.652065,0.0204553,0.00968963,0.0222222,0.00665059,0.00665059,0,0,0,
0.014367347,-0.005081633,92.20408163,11.32432653,2.972510204,21.2794898,0.693877551,0.979592,0.605,0.0313117,0.00933536,0.0212766,0.000974108,0,0.000732261,0.000196795,4.51E-05,4.3681
0.435175,-0.0034,92.2,-11.027925,1.63055,5.348825,0.875,0.975,0.785359,0.0545288,0.0261176,0.0263158,0.0409361,0.0409361,0,0,0,
0.07224,1.18166,92.2,33.00096,10.49542,1.93208,0.42,0.98,0.587531,0.0195737,0.0092376,0.0208333,0.00640684,0.00640684,0,0,0,
0.022744681,-0.003531915,92.19148936,11.09638298,3.696382979,21.38995745,1,0.978723,0.645,2.24E-08,0,0,,0,,,,
0.053680851,0.809787234,92.19148936,28.10365957,9.856404255,16.2088,0,0.978723,0.652065,0.0204553,0.00968963,0.0222222,0.00664605,0.00664605,0,0,0,
0.09797619,-0.0042,92.19047619,28.14266667,21.07102381,16.55502381,0.880952381,0.97619,0.734976,0.0316073,0.0143108,0.05,0.00492722,0.00492722,0,0,0,
0.235219512,-0.0042,92.187,11.8222439,3.436170732,21.5536,0.87804878,0.97561,0.761125,0.0466917,0.0293262,0.128205,0.0264529,0.0214333,0.00501953,0,0,
0.082489362,0.196382979,92.17021277,34.62587234,2.96512766,14.97776596,0,0.978723,0.645,2.24E-08,0,0,,,0,0,0,
-0.003863636,-0.004227273,92.11363636,11.0765,3.695318182,21.39022727,0.454545455,0.977273,0.71,,0,0,,0,,,,
0.077042553,0.857829787,92.10638298,35.61570213,10.71191489,15.2316,0.893617021,0.978723,0.659022,0.0405958,0.0192302,0.0222222,0.0262462,0.0262462,0,0,0,
0.081553191,2.100425532,92.10638298,26.4713617,8.000531915,21.02921277,0.723404255,0.978723,0.652065,0.0204553,0.00968963,0.0222222,0.00653266,0.00653266,0,0,0,
0.073638298,0.781468085,92.10638298,41.39902128,10.488,21.726,0.404255319,0.978723,0.645,2.24E-08,0,0,,,0,0,0,
0.027829787,-0.005893617,92.08510638,11.77093617,3.151468085,23.32782979,1,0.978723,0.645,2.24E-08,0,0,,0,,,,
0.120645833,0.195139535,92.06177083,35.620375,5.461104167,20.95469767,0.4375,0.979167,0.638298,0.0556647,0.0299801,0.0434783,0.0400913,0.0400913,0,0,0,
0.181710526,0.250894737,92.05263158,45.67552632,7.212210526,8.787447368,1,0.973684,0.868135,0.0894185,0.043,0.0277778,0.106028,0.106028,0,0,0,
0.072276596,0.756659574,92.04255319,28.07080851,9.900319149,16.858,0,0.978723,0.652065,0.0204553,0.00968963,0.0222222,0.00668722,0.00668722,0,0,0,
0.068404255,1.840297872,92.0212766,32.63144681,11.34212766,12.2693617,1,0.978723,0.660543,0.0280323,0.0137032,0.0444444,0.00584398,0.00584398,0,0,0,
0.091085106,0.18193617,92.0212766,33.45165957,5.592212766,19.90274468,0.553191489,0.978723,0.652065,0.0204553,0.00968963,0.0222222,0.00664019,0.00664019,0,0,0,
0.43197619,-0.0112,92,-11.36985714,2.132833333,6.128904762,0.880952381,0.97619,0.740317,0.0388075,0.0210149,0.025,0.0190815,0.0190815,0,0,0,
0.459405405,-0.0104,92,-7.492378378,1.208216216,3.844351351,0.135135135,0.972973,0.895639,0.102234,0.0548812,0.0285714,0.133595,0.133595,0,0,0,
0.044978261,-0.0068,91.97826087,28.95917391,19.21047826,12.17867391,1,0.978261,0.671,0.0322032,0.013858,0.0454545,0.00464654,0.00464654,0,0,0,
0.520027778,0.491833333,91.91666667,40.82644444,5.674527778,17.99038889,1,0.972222,0.921857,0.114677,0.055394,0.0294118,0.167376,0.167376,0,0,0,
0.088382979,0.18493617,91.91489362,32.6473617,4.524404255,19.7003617,0.106382979,0.978723,0.645,2.24E-08,0,0,,,0,0,0,
-0.030808511,-0.004680851,91.89361702,11.90502128,2.898638298,18.73595745,0.255319149,0.978723,0.654891,0.0236053,0.00968963,0.0222222,0.000575757,0,0.000235035,0.000286479,5.42E-05,5.28139
0.519972222,0.174805556,91.88888889,42.73866667,6.031222222,16.72811111,1,0.972222,0.921857,0.114677,0.055394,0.0294118,0.167157,0.167157,0,0,0,
0.5215,0.225527778,91.88888889,43.09711111,4.770972222,17.79375,1,0.972222,0.921857,0.114677,0.055394,0.0294118,0.166878,0.166878,0,0,0,
0.109410256,-0.0088,91.87179487,28.12841026,15.14515385,10.54453846,0,0.974359,0.813474,0.0664586,0.0318934,0.027027,0.0596859,0.0596859,0,0,0,
0.105638298,1.02502381,91.82902128,30.59902128,6.507893617,18.80435714,0.106382979,0.978723,0.659022,0.0405958,0.0192302,0.0222222,0.0263768,0.0263768,0,0,0,
0.545921053,0.243315789,91.81578947,39.05273684,4.100342105,17.75718421,0.789473684,0.973684,0.868135,0.0894185,0.043,0.0277778,0.10729,0.10729,0,0,0,
0.088,0.275,91.81081081,44.34886486,5.887891892,7.558189189,0.918918919,0.972973,0.892444,0.105283,0.0462953,0.0857143,0.130668,0.130668,0,0,0,
0.063893617,0.738170213,91.80851064,28.1427234,9.764382979,17.5366,0,0.978723,0.652065,0.0204553,0.00968963,0.0222222,0.00671198,0.00671198,0,0,0,
0.524666667,0.222,91.80555556,43.51911111,8.026083333,17.77538889,1,0.972222,0.934743,0.106553,0.0482365,0.117647,0.139013,0.139013,0,0,0,
0.4445,0.23625,91.80555556,44.89316667,7.346861111,18.33183333,1,0.972222,0.921857,0.114677,0.055394,0.0294118,0.166796,0.166796,0,0,0,
0.597472222,0.505583333,91.80555556,40.77205556,5.403277778,17.21038889,1,0.972222,0.921857,0.114677,0.055394,0.0294118,0.166297,0.166297,0,0,0,
0.627028571,0.236485714,91.8,42.56508571,5.606857143,16.13585714,1,0.971429,0.944971,0.129902,0.0700772,0.121212,0.197278,0.197278,0,0,0,
0.07694,0.85986,91.8,41.91304,21.30918,-10.91072,1,0.98,0.587531,0.0195737,0.0092376,0.0208333,0.00648661,0.00648661,0,0,0,
0.06566,0.79852,91.8,39.70752,13.9467,26.93114,1,0.98,0.594163,0.0394532,0.0186195,0.0208333,0.0263242,0.0263242,0,0,0,
0.02456,0.58772,91.8,30.30844,11.62414,24.8458,0.9,0.98,0.587531,0.0195737,0.0092376,0.0208333,0.00621521,0.00621521,0,0,0,
0.491219512,-0.0046,91.8,-10.98190244,1.470756098,4.445585366,0.12195122,0.97561,0.757875,0.0432062,0.0206565,0.025641,0.0259893,0.0259893,0,0,0,
0.488461538,-0.001,91.8,-7.704358974,1.301897436,4.386410256,0.102564103,0.974359,0.826237,0.0471154,0.026986,0.027027,0.0279971,0.0279971,0,0,0,
0.065553191,0.835808511,91.8,27.64817021,9.906234043,28.56619149,0,0.978723,0.652065,0.0204553,0.00968963,0.0222222,0.00670139,0.00670139,0,0,0,
0.057431818,-0.0062,91.79545455,29.42918182,18.38368182,12.30006818,1,0.977273,0.702442,0.0210829,0.0100297,0.0238095,0.00709055,0.00709055,0,0,0,
0.509,0.229552632,91.76315789,38.61584211,0.994157895,9.893763158,0,0.973684,0.868135,0.0894185,0.043,0.0277778,0.105342,0.105342,0,0,0,
0.083170213,0.758893617,91.74468085,29.07587234,9.943234043,18.006,0,0.978723,0.652065,0.0204553,0.00968963,0.0222222,0.00662859,0.00662859,0,0,0,
0.452868421,0.249368421,91.71052632,40.622,3.887368421,16.16586842,0.289473684,0.973684,0.861216,0.107587,0.0443032,0.0555556,0.152229,0.152229,0,0,0,
0.493888889,0.249333333,91.63888889,40.95894444,1.099416667,17.09197222,0.138888889,0.972222,0.931143,0.0915992,0.0442466,0.0294118,0.106865,0.106865,0,0,0,
0.157026316,0.238736842,91.63157895,42.73810526,6.035578947,10.88934211,1,0.973684,0.868135,0.0894185,0.043,0.0277778,0.107137,0.107137,0,0,0,
0.1726,0.75228,91.6,35.86636,12.97098,27.6666,1,0.98,0.587531,0.0195737,0.0092376,0.0208333,0.00641713,0.00641713,0,0,0,
0.4739,-0.0082,91.6,-11.259375,1.871,7.42865,0.875,0.975,0.785359,0.0545288,0.0261176,0.0263158,0.0409481,0.0409481,0,0,0,
0.446175,-0.0042,91.6,-11.862775,1.581075,5.27575,0.8,0.975,0.785359,0.0545288,0.0261176,0.0263158,0.0406645,0.0406645,0,0,0,
0.116731707,0.819512195,91.6,43.29063415,7.294682927,17.52463415,0.12195122,0.97561,0.757875,0.0432062,0.0206565,0.025641,0.0262649,0.0262649,0,0,0,
0.079446809,1.055531915,91.6,32.55029787,9.679510638,2.476829787,0.106382979,0.978723,0.645,2.24E-08,0,0,,,0,0,0,
0.108808511,0.174361702,91.5106383,33.62897872,5.40987234,19.47838298,0.127659574,0.978723,0.652065,0.0204553,0.00968963,0.0222222,0.00668226,0.00668226,0,0,0,
0.084765957,-0.006765957,91.4893617,11.95468085,3.670957447,20.47578723,1,0.978723,0.645,2.24E-08,0,0,,0,,,,
0.402697674,0.807526316,91.48648837,33.76176744,6.560813953,12.10676316,0.255813953,0.976744,0.742119,0.045514,0.0300897,0.146341,0.0229606,0.0229606,0,0,0,
0.083375,0.78945,91.475,44.80055,4.5408,7.03075,0.125,0.975,0.77241,0.0892415,0.0562712,0.0526316,0.0854492,0.0854492,0,0,0,
0.047531915,1.447191489,91.46808511,28.00297872,9.307914894,19.41078723,1,0.978723,0.645,2.24E-08,0,0,,,0,0,0,
0.553514286,0.274628571,91.45714286,41.79462857,5.797571429,17.41377143,1,0.971429,0.973206,0.138762,0.0573202,0.0606061,0.236015,0.236015,0,0,0,
0.111666667,-0.0018,91.41025641,31.98497436,18.88235897,12.01705128,1,0.974359,0.822026,0.0441915,0.0212075,0.027027,0.0267728,0.0267728,0,0,0,
-0.043021277,-0.006680851,91.40425532,11.35438298,3.549978723,20.45961702,1,0.978723,0.645,2.24E-08,0,0,,0,,,,
0.027787234,-0.004957447,91.40425532,10.744,2.147361702,12.20234043,0,0.978723,0.645,2.24E-08,0,0,,0,,,,
0.429585366,-0.004,91.4,-10.83829268,1.931439024,6.048780488,1,0.97561,0.757875,0.0432062,0.0206565,0.025641,0.0257247,0.0257247,0,0,0,
0.0845,1.22646,91.4,40.8272,11.26778,2.14034,1,0.98,0.581,7.84E-09,0,0,,,0,0,0,
0.399365854,-0.0082,91.4,-11.73612195,1.915243902,6.034634146,0.87804878,0.97561,0.757875,0.0432062,0.0206565,0.025641,0.0260159,0.0260159,0,0,0,
0.238756098,-0.0058,91.4,-7.458463415,1.202634146,3.820073171,0.12195122,0.97561,0.766,0.0214357,0.0102482,0.025641,0.00643208,0.00643208,0,0,0,
0.491804878,-0.0098,91.4,-10.98212195,1.336,4.676658537,0.12195122,0.97561,0.757875,0.0432062,0.0206565,0.025641,0.0260102,0.0260102,0,0,0,
0.462375,-0.0034,91.4,-7.361775,1.0713,2.414325,0,0.975,0.791231,0.0327048,0.0116076,0.0263158,0.0138879,0.0138879,0,0,0,
0.099022727,0.836909091,91.4,44.85940909,7.349386364,16.0075,0,0.977273,0.71,,0,0,,,0,0,0,
0.109590909,0.755272727,91.4,43.51877273,6.772636364,14.59256818,0,0.977273,0.702442,0.0210829,0.0100297,0.0238095,0.00667518,0.00667518,0,0,0,
0.107214286,0.82347619,91.4,44.116,6.833547619,16.15030952,0,0.97619,0.731732,0.0446055,0.0268928,0.1,0.0176005,0.0176005,0,0,0,
